Time,Hip/Shoulder Separation,Shoulder Horizontal Abduction,Shoulder Abduction,Elbow Flexion,Torso Lateral Tilt,Torso Forward Tilt,Torso Rotation,Pelvis Lateral Tilt,Pelvis Forward Tilt,Pelvis Rotation,Front Vertical Force,Back Vertical Force,Total Vertical Force,Torso Angular Velocity,Pelvis Angular Velocity,Arm Angular Velocity
0,0.5370975261,58.70851017,-18.97340534,65.07146042,0.8783157563,-4.394485825,-0.3250154938,-0.5820063295,-7.003676463,0.185712085,465.1894531,425.1191406,890.3085938,-0.0,-0.0,0.0
1,0.536802992,58.68099094,-18.99996018,65.06294206,0.8745219132,-4.400278884,-0.3252698192,-0.5815503226,-7.007952966,0.1851992015,465.8320313,424.8105469,890.6425781,-0.2543253999999773,-0.5128835000000054,-8.518359999996505
2,0.536508458,58.65347171,-19.02651501,65.05442369,0.8707280701,-4.406071943,-0.3255241447,-0.5810943157,-7.012229469,0.1846863179,465.8320313,424.5039063,890.3359375,-0.25432550000004106,-0.5128835999999859,-8.518370000004438
3,0.5360361124,58.62439256,-19.05416816,65.04578331,0.8668849304,-4.41183533,-0.3256704918,-0.5805521631,-7.016509582,0.1841070114,466.4785156,423.7675781,890.2460938,-0.1463470999999994,-0.5793065000000153,-8.640379999988568
4,0.5355637669,58.59531342,-19.0818213,65.03714294,0.8630417907,-4.417598716,-0.3258168389,-0.5800100106,-7.020789695,0.1835277049,467.09375,423.4570313,890.5507813,-0.1463470999999994,-0.5793064999999875,-8.640370000009057
5,0.5350914213,58.56623428,-19.10947445,65.02850256,0.859198651,-4.423362102,-0.3259631861,-0.579467858,-7.025069808,0.1829483984,466.7851563,422.8476563,889.6328125,-0.14634720000000767,-0.5793065000000153,-8.640379999988568
6,0.5346190757,58.53715514,-19.13712759,65.01986218,0.8553555113,-4.429125488,-0.3261095332,-0.5789257055,-7.029349921,0.1823690919,467.4179688,422.8476563,890.265625,-0.1463470999999994,-0.5793064999999875,-8.640380000002779
7,0.5341467302,58.50807599,-19.16478074,65.0112218,0.8515123716,-4.434888875,-0.3262558803,-0.5783835529,-7.033630034,0.1817897854,468.0625,421.8046875,889.8671875,-0.1463470999999994,-0.5793065000000153,-8.640380000002779
8,0.5334956621,58.4773775,-19.19353256,65.00256616,0.8476183472,-4.440606633,-0.3262894726,-0.5777484916,-7.037919904,0.1811479817,468.390625,421.8046875,890.1953125,-0.03359229999999602,-0.6418036999999988,-8.65564000000063
9,0.532844594,58.44667901,-19.22228437,64.99391052,0.8437243228,-4.446324391,-0.3263230648,-0.5771134303,-7.042209773,0.180506178,469.0175781,421.0527344,890.0703125,-0.03359219999998775,-0.6418036999999988,-8.65564000000063
10,0.5321935259,58.41598052,-19.25103619,64.98525487,0.8398302984,-4.452042149,-0.326356657,-0.576478369,-7.046499643,0.1798643743,469.3085938,420.1503906,889.4589844,-0.03359219999998775,-0.6418036999999988,-8.655649999994353
11,0.5315424578,58.38528202,-19.27978801,64.97659923,0.835936274,-4.457759907,-0.3263902493,-0.5758433077,-7.050789512,0.1792225706,469.3203125,419.8457031,889.1660156,-0.03359229999999602,-0.6418036999999988,-8.65564000000063
12,0.5308913897,58.35458353,-19.30853983,64.96794359,0.8320422496,-4.463477666,-0.3264238415,-0.5752082464,-7.055079381,0.1785807669,470.2539063,419.5195313,889.7734375,-0.03359219999998775,-0.6418036999999988,-8.65564000000063
13,0.5300626464,58.3222657,-19.33835925,64.95938333,0.8280991731,-4.469135483,-0.3263417546,-0.5744722207,-7.059384589,0.1778805811,471.2441406,419.2128906,890.4570313,0.08208690000000018,-0.7001858000000027,-8.56026000001009
14,0.5292339031,58.28994786,-19.36817868,64.95082308,0.8241560966,-4.474793301,-0.3262596677,-0.5737361951,-7.063689797,0.1771803954,471.5292969,418.7851563,890.3144531,0.08208690000000018,-0.7001856999999945,-8.560249999987946
15,0.5284051598,58.25763003,-19.39799811,64.94226282,0.8202130201,-4.480451119,-0.3261775807,-0.5730001695,-7.067995004,0.1764802097,471.8769531,417.8691406,889.7460938,0.08208699999995295,-0.7001856999999945,-8.56026000001009
16,0.5275764165,58.22531219,-19.42781753,64.93370257,0.8162699437,-4.486108936,-0.3260954938,-0.5722641438,-7.072300212,0.175780024,471.859375,417.2558594,889.1152344,0.08208690000000018,-0.7001856999999945,-8.560250000002156
17,0.5267476732,58.19299436,-19.45763696,64.92514232,0.8123268672,-4.491766754,-0.3260134069,-0.5715281182,-7.07660542,0.1750798383,472.1796875,417.5585938,889.7382813,0.08208690000000018,-0.7001856999999945,-8.560249999987946
18,0.5257447259,58.15911932,-19.48846049,64.9167864,0.808339747,-4.497353035,-0.3258150199,-0.5706822387,-7.080930453,0.1743255854,472.8300781,416.6464844,889.4765625,0.19838700000002207,-0.754252900000002,-8.355919999999628
19,0.5247417786,58.12524428,-19.51928401,64.90843049,0.8043526269,-4.502939316,-0.3256166329,-0.5698363593,-7.085255486,0.1735713325,473.4726563,415.9082031,889.3808594,0.19838700000002207,-0.754252900000002,-8.355910000005906
20,0.5237388313,58.09136924,-19.55010754,64.90007458,0.8003655068,-4.508525596,-0.3254182459,-0.5689904798,-7.089580519,0.1728170796,473.4570313,416.0371094,889.4941406,0.19838699999996656,-0.754252900000002,-8.355910000005906
21,0.522735884,58.0574942,-19.58093107,64.89171866,0.7963783867,-4.514111877,-0.3252198589,-0.5681446004,-7.093905552,0.1720628267,473.7695313,414.9980469,888.7675781,0.19838700000002207,-0.754252900000002,-8.355919999999628
22,0.5217329367,58.02361916,-19.6117546,64.88336275,0.7923912665,-4.519698158,-0.3250214719,-0.5672987209,-7.098230585,0.1713085738,474.4179688,414.5566406,888.9746094,0.19838699999996656,-0.754252900000002,-8.355909999991695
23,0.520560697,57.9883137,-19.6434857,64.87531366,0.7883678321,-4.52520547,-0.3247083415,-0.566333925,-7.10257987,0.1705038846,474.7382813,414.5566406,889.2949219,0.3131304000000279,-0.8046892000000139,-8.049090000000092
24,0.5193884573,57.95300824,-19.6752168,64.86726456,0.7843443976,-4.530712783,-0.3243952112,-0.5653691291,-7.106929156,0.1696991955,475.0839844,413.9472656,889.03125,0.3131303000000196,-0.8046890999999778,-8.049100000008025
25,0.5182162176,57.91770278,-19.7069479,64.85921547,0.7803209632,-4.536220095,-0.3240820808,-0.5644043331,-7.111278441,0.1688945063,475.7128906,412.7304688,888.4433594,0.3131303999999724,-0.8046892000000139,-8.049090000000092
26,0.5170439779,57.88239733,-19.738679,64.85116637,0.7762975287,-4.541727408,-0.3237689504,-0.5634395372,-7.115627727,0.1680898172,476.0195313,412.7304688,888.75,0.3131304000000279,-0.8046891000000056,-8.049099999993814
27,0.5158717382,57.84709187,-19.7704101,64.84311728,0.7722740942,-4.54723472,-0.3234558201,-0.5624747413,-7.119977012,0.167285128,476.3476563,411.9863281,888.3339844,0.3131302999999641,-0.8046891999999861,-8.049090000000092
28,0.5145359413,57.81054337,-19.8029217,64.83546702,0.768224721,-4.552660418,-0.3230306187,-0.5613827861,-7.124354667,0.1664333592,476.3574219,411.3730469,887.7304688,0.42520140000001927,-0.8517688000000134,-7.65026000000546
29,0.5132001443,57.77399488,-19.8354333,64.82781677,0.7641753478,-4.558086117,-0.3226054174,-0.5602908309,-7.128732321,0.1655815904,477.3085938,411.0644531,888.3730469,0.425201300000011,-0.8517687999999857,-7.650249999997527
30,0.5118643474,57.73744639,-19.86794491,64.82016652,0.7601259746,-4.563511815,-0.322180216,-0.5591988757,-7.133109976,0.1647298216,477.609375,410.7617188,888.3710938,0.42520139999996376,-0.8517688000000134,-7.650249999997527
31,0.5105285505,57.70089789,-19.90045651,64.81251626,0.7560766014,-4.568937513,-0.3217550146,-0.5581069205,-7.13748763,0.1638780528,478.3027344,410.4589844,888.7617188,0.42520140000001927,-0.8517687999999857,-7.65026000000546
32,0.5091927535,57.6643494,-19.93296811,64.80486601,0.7520272282,-4.574363211,-0.3213298133,-0.5570149653,-7.141865284,0.1630262839,477.6328125,409.7207031,887.3535156,0.425201300000011,-0.851768899999994,-7.650249999997527
33,0.5076984964,57.62679943,-19.96610587,64.79769268,0.7479642826,-4.579709176,-0.3207956639,-0.5557893154,-7.146274121,0.1621296877,477.953125,409.4160156,887.3691406,0.5341493999999614,-0.896596200000016,-7.173330000000533
34,0.5062042393,57.58924945,-19.99924364,64.79051935,0.7439013369,-4.585055141,-0.3202615145,-0.5545636655,-7.150682957,0.1612330915,478.9101563,408.8085938,887.71875,0.5341494000000169,-0.8965961999999883,-7.173330000000533
35,0.5047099822,57.55169948,-20.0323814,64.78334603,0.7398383913,-4.590401106,-0.3197273651,-0.5533380155,-7.155091793,0.1603364952,479.2441406,408.8085938,888.0527344,0.5341494000000169,-0.8965962999999966,-7.1733199999926
36,0.5032157251,57.51414951,-20.06551916,64.7761727,0.7357754457,-4.59574707,-0.3191932157,-0.5521123656,-7.15950063,0.159439899,479.2167969,408.4980469,887.7148438,0.5341494000000169,-0.896596200000016,-7.173330000000533
37,0.501721468,57.47659954,-20.09865692,64.76899937,0.7317125001,-4.601093035,-0.3186590663,-0.5508867157,-7.163909466,0.1585433028,479.5351563,407.7558594,887.2910156,0.5341493999999614,-0.8965961999999883,-7.173330000000533
38,0.5000730894,57.4383341,-20.13224505,64.76236269,0.7276493954,-4.606365486,-0.3180196526,-0.5495231103,-7.168351366,0.1576027646,479.5351563,408.1875,887.7226563,0.6394137000000355,-0.9405382000000073,-6.636679999999728
39,0.4984247107,57.40006866,-20.16583318,64.75572602,0.7235862907,-4.611637937,-0.3173802389,-0.5481595049,-7.172793267,0.1566622263,479.8808594,407.4472656,887.328125,0.63941369999998,-0.9405382999999878,-6.636670000006006
40,0.496776332,57.36180322,-20.19942131,64.74908934,0.719523186,-4.616910388,-0.3167408252,-0.5467958995,-7.177235168,0.1557216881,480.2089844,406.5371094,886.7460938,0.63941369999998,-0.9405382000000073,-6.636679999999728
41,0.4951279533,57.32353778,-20.23300944,64.74245266,0.7154600813,-4.622182839,-0.3161014115,-0.5454322941,-7.181677068,0.1547811499,480.1835938,406.5371094,886.7207031,0.6394137000000355,-0.9405382000000073,-6.636679999999728
42,0.4934795747,57.28527235,-20.26659757,64.73581599,0.7113969766,-4.62745529,-0.3154619978,-0.5440686887,-7.186118969,0.1538406117,480.4902344,406.8417969,887.3320313,0.63941369999998,-0.9405382000000073,-6.6366699999917955
43,0.491682235,57.24660858,-20.30044665,64.72975357,0.7073468896,-4.632664885,-0.3147220841,-0.5425659588,-7.190594283,0.1528566798,481.8066406,405.7910156,887.5976563,0.7399136999999834,-0.9839318999999846,-6.062420000006341
44,0.4898848954,57.20794481,-20.33429574,64.72369116,0.7032968026,-4.63787448,-0.3139821705,-0.5410632289,-7.195069597,0.1518727479,481.15625,405.7910156,886.9472656,0.7399136000000306,-0.9839319000000124,-6.062409999998408
45,0.4880875558,57.16928105,-20.36814482,64.71762874,0.6992467156,-4.643084075,-0.3132422568,-0.539560499,-7.199544912,0.1508888159,481.4511719,406.2246094,887.6757813,0.7399136999999834,-0.9839319999999929,-6.062420000006341
46,0.4862902161,57.13061728,-20.4019939,64.71156633,0.6951966286,-4.64829367,-0.3125023432,-0.5380577691,-7.204020226,0.149904884,481.7695313,405.9199219,887.6894531,0.7399136000000306,-0.9839319000000124,-6.062409999998408
47,0.4844928765,57.09195352,-20.43584298,64.70550391,0.6911465416,-4.653503265,-0.3117624295,-0.5365550392,-7.20849554,0.1489209521,481.7695313,404.8789063,886.6484375,0.7399136999999834,-0.9839318999999846,-6.06241999999213
48,0.4825516857,57.05323017,-20.46975567,64.70002714,0.6871218554,-4.658664447,-0.3109271346,-0.5349152699,-7.213002759,0.1478936774,482.4179688,404.5761719,886.9941406,0.8352949000000054,-1.027274699999997,-5.476770000001352
49,0.4806104949,57.01450683,-20.50366836,64.69455036,0.6830971691,-4.66382563,-0.3100918396,-0.5332755007,-7.217509979,0.1468664027,482.46875,405.0019531,887.4707031,0.8352950000000137,-1.027274699999997,-5.476780000009285
50,0.4786693042,56.97578348,-20.53758105,64.68907359,0.6790724829,-4.668986813,-0.3092565447,-0.5316357314,-7.222017198,0.1458391281,483.0566406,404.6972656,887.7539063,0.8352948999999499,-1.0272746000000166,-5.476769999987141
51,0.4767281134,56.93706014,-20.57149374,64.68359681,0.6750477967,-4.674147996,-0.3084212497,-0.5299959622,-7.226524417,0.1448118534,483.0488281,404.0917969,887.140625,0.8352950000000137,-1.027274699999997,-5.476780000009285
52,0.4747869226,56.89833679,-20.60540643,64.67812004,0.6710231104,-4.679309179,-0.3075859548,-0.5283561929,-7.231031637,0.1437845787,483.7050781,403.6582031,887.3632813,0.8352949000000054,-1.027274699999997,-5.476770000001352
53,0.4727070519,56.85989854,-20.63918625,64.6732108,0.667034501,-4.684438492,-0.3066602019,-0.5265849732,-7.23556849,0.1427141366,483.7167969,403.6542969,887.3710938,0.9257529000000209,-1.0704420999999853,-4.909239999989268
54,0.4706271812,56.82146028,-20.67296607,64.66830156,0.6630458915,-4.689567805,-0.305734449,-0.5248137535,-7.240105343,0.1416436945,483.6894531,403.0332031,886.7226563,0.9257528999999654,-1.070442100000013,-4.909240000003479
55,0.4685473104,56.78302203,-20.70674589,64.66339232,0.6590572821,-4.694697118,-0.3048086961,-0.5230425338,-7.244642197,0.1405732524,483.7011719,402.2949219,885.9960938,0.9257529000000209,-1.070442100000013,-4.909240000003479
56,0.4664674397,56.74458378,-20.74052572,64.65848308,0.6550686726,-4.699826431,-0.3038829433,-0.5212713141,-7.24917905,0.1395028103,484.3164063,402.2949219,886.6113281,0.9257528000000126,-1.0704420999999853,-4.909240000003479
57,0.464387569,56.70614552,-20.77430554,64.65357384,0.6510800632,-4.704955745,-0.3029571904,-0.5195000944,-7.253715904,0.1384323682,485.2832031,401.6777344,886.9609375,0.9257528999999654,-1.070442100000013,-4.909239999989268
58,0.4621764299,56.66832701,-20.80776552,64.64918405,0.6471354508,-4.710070403,-0.3019461719,-0.5176067189,-7.258279031,0.1373207527,484.6523438,401.6777344,886.3300781,1.011018500000016,-1.111615499999996,-4.389790000004723
59,0.4599652909,56.63050849,-20.8412255,64.64479427,0.6431908384,-4.715185062,-0.3009351533,-0.5157133435,-7.262842158,0.1362091371,484.6796875,401.0703125,885.75,1.0110186000000243,-1.1116156000000044,-4.38977999999679
60,0.4577541518,56.59268997,-20.87468548,64.64040448,0.6392462261,-4.72029972,-0.2999241348,-0.5138199681,-7.267405285,0.1350975216,485.28125,400.765625,886.046875,1.0110184999999605,-1.111615499999996,-4.389790000004723
61,0.4555430127,56.55487145,-20.90814546,64.6360147,0.6353016137,-4.725414379,-0.2989131162,-0.5119265927,-7.271968412,0.133985906,485.9296875,400.4628906,886.3925781,1.0110186000000243,-1.1116156000000044,-4.38977999999679
62,0.4533318736,56.51705293,-20.94160544,64.63162491,0.6313570013,-4.730529037,-0.2979020977,-0.5100332173,-7.276531539,0.1328742905,485.9296875,400.4628906,886.3925781,1.011018500000016,-1.111615499999996,-4.389790000004723
63,0.4510002045,56.48016267,-20.97457761,64.62767816,0.6274605465,-4.735646312,-0.2968122669,-0.5080300491,-7.281116358,0.1317254295,486.2382813,400.1542969,886.3925781,1.089830799999969,-1.148861000000001,-3.9467499999972233
64,0.4486685354,56.44327241,-21.00754977,64.62373141,0.6235640916,-4.740763587,-0.2957224361,-0.5060268809,-7.285701177,0.1305765684,486.8828125,399.5449219,886.4277344,1.0898308000000245,-1.1488610999999815,-3.9467499999972233
65,0.4463368663,56.40638214,-21.04052193,64.61978466,0.6196676367,-4.745880862,-0.2946326054,-0.5040237128,-7.290285996,0.1294277074,487.203125,399.2382813,886.4414063,1.0898306999999607,-1.148861000000001,-3.946750000011434
66,0.4440051972,56.36949188,-21.07349409,64.61583791,0.6157711818,-4.750998137,-0.2935427746,-0.5020205446,-7.294870815,0.1282788464,487.53125,399.2382813,886.7695313,1.0898308000000245,-1.148861000000001,-3.9467499999972233
67,0.4416735281,56.33260162,-21.10646625,64.61189115,0.611874727,-4.756115412,-0.2924529438,-0.5000173764,-7.299455634,0.1271299853,487.53125,399.234375,886.765625,1.0898308000000245,-1.1488611000000093,-3.9467599999909453
68,0.4392359579,56.29690735,-21.13880896,64.60828867,0.6080269483,-4.761251901,-0.2912917347,-0.4979189077,-7.304056807,0.1259506151,487.5234375,398.9238281,886.4472656,1.1612090999999491,-1.1793702000000017,-3.602480000012065
69,0.4367983876,56.26121309,-21.17115168,64.60468619,0.6041791696,-4.766388389,-0.2901305255,-0.495820439,-7.308657979,0.1247712448,487.84375,398.6289063,886.4726563,1.161209200000013,-1.179370299999996,-3.602479999997854
70,0.4343608174,56.22551882,-21.20349439,64.60108371,0.6003313909,-4.771524877,-0.2889693164,-0.4937219702,-7.313259152,0.1235918745,487.84375,398.0136719,885.8574219,1.1612091000000047,-1.179370299999996,-3.602479999997854
71,0.4319232472,56.18982456,-21.2358371,64.59748123,0.5964836122,-4.776661366,-0.2878081072,-0.4916235015,-7.317860325,0.1224125043,488.171875,398.0136719,886.1855469,1.161209200000013,-1.1793702000000017,-3.602479999997854
72,0.4294856769,56.1541303,-21.26817981,64.59387874,0.5926358335,-4.781797854,-0.2866468981,-0.4895250328,-7.322461498,0.121233134,488.8242188,398.0136719,886.8378906,1.1612091000000047,-1.179370299999996,-3.602490000005787
73,0.426960998,56.11984998,-21.29978113,64.59050645,0.5888344441,-4.786967564,-0.2854219242,-0.4873475508,-7.327071592,0.120033882,489.1464844,398.0097656,887.15625,1.2249738999999815,-1.1992520000000118,-3.372289999987288
74,0.4244363191,56.08556966,-21.33138246,64.58713415,0.5850330547,-4.792137273,-0.2841969503,-0.4851700689,-7.331681686,0.1188346299,489.1367188,397.4003906,886.5371094,1.224973900000037,-1.1992520999999923,-3.3723000000094316
75,0.4219116401,56.05128935,-21.36298378,64.58376185,0.5812316653,-4.797306982,-0.2829719763,-0.4829925869,-7.336291781,0.1176353779,489.8066406,397.6933594,887.5,1.2249739999999898,-1.1992519999999978,-3.372299999995221
76,0.4193869612,56.01700903,-21.3945851,64.58038955,0.5774302759,-4.802476692,-0.2817470024,-0.4808151049,-7.340901875,0.1164361258,490.1269531,397.6933594,887.8203125,1.2249738999999815,-1.199252100000006,-3.372299999995221
77,0.4168622823,55.98272871,-21.42618643,64.57701726,0.5736288866,-4.807646401,-0.2805220285,-0.478637623,-7.345511969,0.1152368738,490.1113281,397.3886719,887.5,1.2249738999999815,-1.1992519999999978,-3.372290000001499
78,0.4142721827,55.95002254,-21.45696654,64.57375384,0.5698697726,-4.812858921,-0.279240566,-0.476397752,-7.350121375,0.1140315574,490.4296875,397.3886719,887.8183594,1.2814624999999968,-1.2053164000000032,-3.263420000010342
79,0.4116820831,55.91731636,-21.48774665,64.57049043,0.5661106587,-4.818071441,-0.2779591034,-0.474157881,-7.35473078,0.112826241,490.7363281,396.7636719,887.5,1.2814626000000051,-1.2053164000000032,-3.2634099999881983
80,0.4090919835,55.88461018,-21.51852676,64.56722702,0.5623515448,-4.823283961,-0.2766776409,-0.47191801,-7.359340186,0.1116209246,490.7363281,396.7636719,887.5,1.2814624999999968,-1.2053163999999894,-3.263410000002409
81,0.4065018839,55.851904,-21.54930687,64.56396361,0.5585924309,-4.828496481,-0.2753961783,-0.469678139,-7.363949591,0.1104156082,491.3710938,397.0683594,888.4394531,1.2814626000000051,-1.2053164000000032,-3.263410000002409
82,0.4039117843,55.81919782,-21.58008698,64.56070019,0.554833317,-4.833709001,-0.2741147158,-0.467438268,-7.368558997,0.1092102918,491.71875,397.3828125,889.1015625,1.2814624999999968,-1.2053164000000032,-3.263419999996131
83,0.4012813882,55.78816679,-21.6099973,64.55742536,0.5511112799,-4.838969024,-0.2727839112,-0.465151725,-7.373156414,0.1080163001,491.71875,397.3828125,889.1015625,1.3308046000000129,-1.1939916999999938,-3.2748300000093877
84,0.398650992,55.75713575,-21.63990761,64.55415052,0.5473892428,-4.844229048,-0.2714531067,-0.462865182,-7.37775383,0.1068223085,492.0,397.0644531,889.0644531,1.3308045000000046,-1.1939915999999995,-3.2748400000031097
85,0.3960205959,55.72610472,-21.66981793,64.55087569,0.5436672058,-4.849489071,-0.2701223021,-0.4605786389,-7.382351247,0.1056283168,492.3046875,396.7402344,889.0449219,1.3308046000000129,-1.1939917000000078,-3.274829999995177
86,0.3933901997,55.69507368,-21.69972825,64.54760085,0.5399451687,-4.854749095,-0.2687914976,-0.4582920959,-7.386948664,0.1044343251,492.6386719,396.4511719,889.0898438,1.3308045000000046,-1.1939916999999938,-3.2748400000031097
