Time,Hip/Shoulder Separation,Shoulder Horizontal Abduction,Shoulder Abduction,Elbow Flexion,Torso Lateral Tilt,Torso Forward Tilt,Torso Rotation,Pelvis Lateral Tilt,Pelvis Forward Tilt,Pelvis Rotation,Front Vertical Force,Back Vertical Force,Total Vertical Force,Torso Angular Velocity,Pelvis Angular Velocity,Arm Angular Velocity
0,-0.3205832233,55.80003702,-22.01453417,66.84868465,2.806393438,-2.40823443,0.4443664385,-0.7108259737,-3.313993706,0.1123279288,443.1738281,454.6582031,897.8320313,-0.0,-0.0,0.0
1,-0.3193513207,55.80133096,-22.02230248,66.84838469,2.801627286,-2.415573396,0.4434527815,-0.7103205438,-3.319554744,0.1126762912,443.5234375,454.0488281,897.5722656,-0.9136570000000122,0.3483623999999963,-0.2999599999924385
2,-0.3181194182,55.8026249,-22.03007079,66.84808473,2.796861134,-2.422912363,0.4425391245,-0.7098151138,-3.325115782,0.1130246536,443.2226563,454.0449219,897.2675781,-0.9136570000000122,0.3483623999999963,-0.29996000000664935
3,-0.3168875157,55.80391883,-22.03783909,66.84778478,2.792094981,-2.43025133,0.4416254674,-0.7093096839,-3.330676821,0.113373016,443.2226563,454.0449219,897.2675781,-0.9136570999999649,0.3483623999999963,-0.2999499999987165
4,-0.3158070939,55.80689764,-22.04500376,66.84706333,2.787199098,-2.43795546,0.4408909155,-0.7088120771,-3.336362853,0.1137516598,443.4960938,453.7324219,897.2285156,-0.7345519000000467,0.37864380000000863,-0.7214500000003454
5,-0.3147266721,55.80987646,-22.05216843,66.84634188,2.782303215,-2.445659591,0.4401563636,-0.7083144704,-3.342048886,0.1141303036,443.5429688,453.7363281,897.2792969,-0.7345518999999912,0.37864379999999476,-0.7214500000003454
6,-0.3136462504,55.81285527,-22.05933309,66.84562044,2.777407332,-2.453363721,0.4394218117,-0.7078168637,-3.347734918,0.1145089474,444.1914063,453.7519531,897.9433594,-0.7345518999999912,0.37864380000000863,-0.7214399999924126
7,-0.3125658286,55.81583409,-22.06649776,66.84489899,2.772511449,-2.461067852,0.4386872598,-0.707319257,-3.353420951,0.1148875912,444.4609375,453.4472656,897.9082031,-0.7345518999999912,0.37864379999999476,-0.7214500000003454
8,-0.3114854069,55.8188129,-22.07366243,66.84417754,2.767615566,-2.468771983,0.4379527079,-0.7068216502,-3.359106983,0.1152662349,444.7890625,453.140625,897.9296875,-0.7345518999999912,0.37864370000000036,-0.7214500000003454
9,-0.3105807276,55.82341514,-22.08025323,66.84288656,2.762576974,-2.476847569,0.4374257322,-0.7063366712,-3.364909177,0.1156794502,445.109375,453.125,898.234375,-0.526975700000043,0.4132153000000055,-1.2909800000073801
10,-0.3096760483,55.82801738,-22.08684404,66.84159557,2.757538382,-2.484923155,0.4368987564,-0.7058516922,-3.370711371,0.1160926655,445.1328125,453.1230469,898.2558594,-0.5269757999999958,0.4132152999999916,-1.290990000001102
11,-0.3087713691,55.83261963,-22.09343484,66.84030459,2.75249979,-2.492998742,0.4363717807,-0.7053667132,-3.376513564,0.1165058807,444.8242188,452.2265625,897.0507813,-0.5269756999999875,0.41321519999999723,-1.2909799999931693
12,-0.3078666898,55.83722187,-22.10002565,66.8390136,2.747461199,-2.501074328,0.435844805,-0.7048817342,-3.382315758,0.116919096,444.7988281,452.8378906,897.6367188,-0.5269756999999875,0.4132153000000055,-1.290990000001102
13,-0.3069620105,55.84182411,-22.10661645,66.83772262,2.742422607,-2.509149915,0.4353178292,-0.7043967552,-3.388117951,0.1173323113,444.7929688,452.5292969,897.3222656,-0.5269757999999958,0.4132153000000055,-1.2909800000073801
14,-0.3062463982,55.84791578,-22.11268774,66.83575309,2.737226384,-2.517597967,0.4350146333,-0.7039287812,-3.394027801,0.1177830015,445.7519531,452.0839844,897.8359375,-0.3031958999999973,0.4506901999999924,-1.9695299999966664
15,-0.3055307859,55.85400745,-22.11875903,66.83378356,2.732030161,-2.52604602,0.4347114374,-0.7034608073,-3.399937651,0.1182336918,445.4550781,452.5175781,897.9726563,-0.3031958999999973,0.45069030000000065,-1.9695299999966664
16,-0.3048151736,55.86009912,-22.12483031,66.83181403,2.726833938,-2.534494072,0.4344082415,-0.7029928333,-3.405847501,0.1186843821,445.1328125,451.90625,897.0390625,-0.3031958999999973,0.45069030000000065,-1.9695299999966664
17,-0.3040995612,55.8661908,-22.1309016,66.8298445,2.721637715,-2.542942125,0.4341050456,-0.7025248593,-3.41175735,0.1191350724,445.7519531,451.78125,897.5332031,-0.3031958999999973,0.45069030000000065,-1.9695300000108773
18,-0.3033839489,55.87228247,-22.13697288,66.82787497,2.716441492,-2.551390177,0.4338018497,-0.7020568854,-3.4176672,0.1195857627,445.7773438,451.78125,897.5585938,-0.3031958999999973,0.45069030000000065,-1.9695299999966664
19,-0.3028600923,55.87966556,-22.14259832,66.82516704,2.711072344,-2.56020605,0.4337262164,-0.7016096363,-3.423676167,0.1200749956,446.0742188,451.78125,897.8554688,-0.0756333000000442,0.4892328999999973,-2.707929999999692
20,-0.3023362356,55.88704864,-22.14822376,66.82245911,2.705703196,-2.569021922,0.433650583,-0.7011623873,-3.429685133,0.1205642285,446.0585938,451.4746094,897.5332031,-0.07563339999999696,0.4892328999999973,-2.707929999999692
21,-0.301812379,55.89443173,-22.15384919,66.81975118,2.700334049,-2.577837794,0.4335749497,-0.7007151383,-3.435694099,0.1210534613,446.0742188,451.4882813,897.5625,-0.07563329999998869,0.4892328000000029,-2.707929999999692
22,-0.3012885223,55.90181482,-22.15947463,66.81704325,2.694964901,-2.586653666,0.4334993163,-0.7002678893,-3.441703065,0.1215426942,445.765625,451.4746094,897.2402344,-0.07563339999999696,0.4892328999999973,-2.707929999999692
23,-0.3007646657,55.90919791,-22.16510007,66.81433533,2.689595753,-2.595469538,0.4334236829,-0.6998206402,-3.447712032,0.122031927,446.7167969,451.4707031,898.1875,-0.07563339999999696,0.4892328000000029,-2.707919999991759
24,-0.300425964,55.91762569,-22.17036311,66.81088475,2.684040447,-2.60464221,0.4335678168,-0.6993965791,-3.453813098,0.1225584134,446.40625,451.4609375,897.8671875,0.1441339000000097,0.526486399999998,-3.450580000006198
25,-0.3000872623,55.92605347,-22.17562614,66.80743416,2.67848514,-2.613814882,0.4337119506,-0.698972518,-3.459914165,0.1230848998,446.7207031,451.0292969,897.75,0.14413380000000142,0.526486399999998,-3.45058999999992
26,-0.2997485607,55.93448125,-22.18088918,66.80398358,2.672929833,-2.622987554,0.4338560844,-0.6985484568,-3.466015232,0.1236113861,447.0566406,451.0332031,898.0898438,0.14413380000000142,0.5264863000000036,-3.450580000006198
27,-0.299409859,55.94290904,-22.18615222,66.800533,2.667374526,-2.632160226,0.4340002183,-0.6981243957,-3.472116299,0.1241378725,447.0585938,451.0332031,898.0917969,0.1441339000000097,0.526486399999998,-3.4505799999919873
28,-0.2990711573,55.95133682,-22.19141525,66.79708242,2.66181922,-2.641332898,0.4341443521,-0.6977003346,-3.478217366,0.1246643589,447.0585938,450.4199219,897.4785156,0.14413380000000142,0.526486399999998,-3.450580000006198
29,-0.2989009329,55.96053204,-22.19639936,66.79294225,2.656068395,-2.650844559,0.4344892105,-0.6973002505,-3.484405255,0.1252255679,447.3652344,450.7285156,898.09375,0.344858399999981,0.561209000000007,-4.1401699999994435
30,-0.2987307085,55.96972727,-22.20138347,66.78880209,2.65031757,-2.660356219,0.4348340688,-0.6969001665,-3.490593143,0.125786777,447.3652344,450.4238281,897.7890625,0.34485829999997275,0.5612090999999875,-4.140159999991511
31,-0.2985604841,55.97892249,-22.20636757,66.78466192,2.644566745,-2.669867879,0.4351789272,-0.6965000824,-3.496781032,0.1263479861,447.6855469,450.1152344,897.8007813,0.34485840000003654,0.5612091000000152,-4.1401699999994435
32,-0.2983902597,55.98811771,-22.21135168,66.78052176,2.63881592,-2.679379539,0.4355237856,-0.6960999984,-3.50296892,0.1269091952,447.9941406,450.1152344,898.109375,0.344858399999981,0.5612090999999875,-4.1401600000057215
33,-0.2982200353,55.99731294,-22.21633579,66.77638159,2.633065095,-2.688891199,0.4358686439,-0.6956999143,-3.509156809,0.1274704042,447.6875,450.4199219,898.1074219,0.34485830000002826,0.561209000000007,-4.1401699999994435
34,-0.2981909735,56.006983,-22.2211181,66.77166073,2.62711406,-2.698717787,0.4363833749,-0.6953225435,-3.515427605,0.1280625769,448.0078125,450.4042969,898.4121094,0.5147309999999905,0.5921727000000043,-4.720860000006155
35,-0.2981619117,56.01665306,-22.22590042,66.76693987,2.621163026,-2.708544376,0.4368981059,-0.6949451727,-3.521698401,0.1286547496,447.9980469,450.8574219,898.8554688,0.5147309999999905,0.5921727000000043,-4.720859999991944
36,-0.2981328499,56.02632312,-22.23068274,66.76221901,2.615211991,-2.718370964,0.4374128369,-0.6945678019,-3.527969197,0.1292469223,448.6679688,450.4199219,899.0878906,0.5147309999999905,0.5921727000000043,-4.720860000006155
37,-0.2981037881,56.03599318,-22.23546506,66.75749816,2.609260956,-2.728197553,0.4379275679,-0.6941904311,-3.534239992,0.129839095,448.9765625,449.8125,898.7890625,0.5147309999999905,0.5921726999999766,-4.720849999998222
38,-0.2980747262,56.04566323,-22.24024738,66.7527773,2.603309921,-2.738024142,0.4384422988,-0.6938130603,-3.540510788,0.1304312677,448.9765625,449.7949219,898.7714844,0.5147309000000377,0.5921727000000043,-4.720859999991944
39,-0.2981491782,56.05551865,-22.2448915,66.74763554,2.597159206,-2.748136398,0.4390845635,-0.6934547302,-3.546862876,0.1310494398,449.0039063,449.5058594,898.5097656,0.6422647000000059,0.6181721000000084,-5.141760000000772
40,-0.2982236301,56.06537407,-22.24953563,66.74249378,2.59100849,-2.758248655,0.4397268282,-0.6930964001,-3.553214964,0.1316676118,449.3164063,449.3710938,898.6875,0.6422646999999504,0.6181720000000002,-5.141760000000772
41,-0.298298082,56.07522949,-22.25417976,66.73735202,2.584857775,-2.768360911,0.4403690929,-0.69273807,-3.559567052,0.1322857838,449.2890625,449.0585938,898.3476563,0.6422647000000059,0.6181720000000002,-5.141760000000772
42,-0.2983725339,56.08508491,-22.25882388,66.73221026,2.57870706,-2.778473168,0.4410113575,-0.6923797399,-3.56591914,0.1329039559,449.2695313,449.0507813,898.3203125,0.6422645999999976,0.6181721000000084,-5.141760000000772
43,-0.2984469858,56.09494033,-22.26346801,66.7270685,2.572556344,-2.788585425,0.4416536222,-0.6920214098,-3.572271228,0.1335221279,449.9316406,448.7558594,898.6875,0.6422647000000059,0.6181720000000002,-5.141760000000772
44,-0.2985778675,56.10470911,-22.26801972,66.72170532,2.566212072,-2.798949424,0.4423716162,-0.6916764305,-3.578704646,0.1341612556,450.875,448.4394531,899.3144531,0.7179939999999996,0.6391276999999917,-5.363180000003354
45,-0.2987087493,56.11447788,-22.27257144,66.71634214,2.559867799,-2.809313423,0.4430896102,-0.6913314512,-3.585138063,0.1348003834,450.875,448.7441406,899.6191406,0.7179939999999996,0.6391278,-5.363180000003354
46,-0.298839631,56.12424666,-22.27712315,66.71097896,2.553523526,-2.819677423,0.4438076041,-0.690986472,-3.591571481,0.1354395111,450.8867188,448.4394531,899.3261719,0.7179938999999913,0.6391276999999917,-5.363179999989143
47,-0.2989705127,56.13401544,-22.28167486,66.70561578,2.547179253,-2.830041422,0.4445255981,-0.6906414927,-3.598004899,0.1360786388,451.2148438,448.1367188,899.3515625,0.7179939999999996,0.6391277000000195,-5.363180000003354
48,-0.2991013944,56.14378422,-22.28622658,66.7002526,2.54083498,-2.840405421,0.4452435921,-0.6902965134,-3.604438316,0.1367177665,451.2421875,448.1367188,899.3789063,0.7179939999999996,0.6391276999999917,-5.363180000003354
49,-0.2992356992,56.15322457,-22.29070984,66.69489525,2.534308804,-2.85098288,0.4459788925,-0.6899574136,-3.610953749,0.1373720714,452.1777344,447.8261719,900.0039063,0.7353004000000274,0.6543048999999856,-5.357349999997041
50,-0.299370004,56.16266492,-22.29519311,66.68953791,2.527782627,-2.861560338,0.4467141928,-0.6896183138,-3.617469182,0.1380263762,452.1796875,447.3964844,899.5761719,0.7353003000000191,0.6543048000000051,-5.357340000003319
51,-0.2995043088,56.17210527,-22.29967637,66.68418056,2.521256451,-2.872137796,0.4474494932,-0.689279214,-3.623984615,0.1386806811,452.1640625,446.7792969,898.9433594,0.7353003999999719,0.6543049000000134,-5.357349999997041
52,-0.2996386135,56.18154562,-22.30415964,66.67882321,2.514730274,-2.882715255,0.4481847936,-0.6889401142,-3.630500048,0.1393349859,452.484375,446.7792969,899.2636719,0.7353004000000274,0.6543048000000051,-5.357349999997041
53,-0.2997729183,56.19098598,-22.3086429,66.67346586,2.508204097,-2.893292713,0.448920094,-0.6886010144,-3.637015481,0.1399892907,452.4960938,447.0800781,899.5761719,0.7353003999999719,0.6543047999999774,-5.357350000011252
54,-0.2998541184,56.19989642,-22.31305834,66.66835552,2.501512159,-2.904042146,0.4496104609,-0.6882588728,-3.643614714,0.1406526593,452.5117188,447.3886719,899.9003906,0.6903669000000168,0.6633686000000194,-5.1103399999874455
55,-0.2999353184,56.20880686,-22.31747377,66.66324518,2.49482022,-2.914791579,0.4503008279,-0.6879167313,-3.650213946,0.1413160278,453.4804688,446.7910156,900.2714844,0.6903669999999695,0.6633684999999834,-5.110340000001656
56,-0.3000165185,56.2177173,-22.32188921,66.65813484,2.488128281,-2.925541012,0.4509911949,-0.6875745897,-3.656813179,0.1419793963,453.4941406,446.3535156,899.8476563,0.690367000000025,0.6633685000000111,-5.110340000001656
57,-0.3000977185,56.22662774,-22.32630464,66.6530245,2.481436342,-2.936290445,0.4516815619,-0.6872324482,-3.663412412,0.1426427648,453.7753906,446.7753906,900.5507813,0.6903669999999695,0.6633684999999834,-5.110340000001656
58,-0.3001789186,56.23553818,-22.33072008,66.64791416,2.474744403,-2.947039878,0.4523719289,-0.6868903066,-3.670011644,0.1433061333,453.7871094,446.0332031,899.8203125,0.690367000000025,0.6633685000000111,-5.110340000001656
59,-0.3001492811,56.24376353,-22.33504617,66.6432929,2.467906164,-2.957919016,0.4529546063,-0.6865351776,-3.67669693,0.1439731284,454.0820313,445.4257813,899.5078125,0.582677400000009,0.6669951000000118,-4.621259999993299
60,-0.3001196437,56.25198889,-22.33937226,66.63867163,2.461067926,-2.968798153,0.4535372837,-0.6861800486,-3.683382216,0.1446401234,454.109375,445.4257813,899.5351563,0.582677400000009,0.6669949999999758,-4.621270000001232
61,-0.3000900062,56.26021424,-22.34369835,66.63405037,2.454229688,-2.979677291,0.4541199611,-0.6858249196,-3.690067502,0.1453071185,455.09375,444.9824219,900.0761719,0.582677400000009,0.6669951000000118,-4.62126000000751
62,-0.3000603688,56.26843959,-22.34802444,66.6294291,2.447391449,-2.990556428,0.4547026386,-0.6854697905,-3.696752788,0.1459741136,455.7070313,445.1132813,900.8203125,0.5826774999999618,0.6669951000000118,-4.621270000001232
63,-0.3000307313,56.27666495,-22.35235053,66.62480784,2.440553211,-3.001435566,0.455285316,-0.6851146615,-3.703438073,0.1466411087,455.3984375,445.0976563,900.4960938,0.582677400000009,0.6669950999999841,-4.621259999993299
64,-0.2998367163,56.2841054,-22.35654257,66.62090055,2.433591177,-3.012403874,0.4557019704,-0.6847358491,-3.710212689,0.14730653,455.7207031,443.7539063,899.4746094,0.4166543999999939,0.6654212999999964,-3.907290000000785
65,-0.2996427013,56.29154585,-22.36073461,66.61699326,2.426629144,-3.023372182,0.4561186248,-0.6843570367,-3.716987305,0.1479719513,456.0488281,443.6367188,899.6855469,0.4166543999999939,0.6654212999999964,-3.907290000000785
66,-0.2994486863,56.2989863,-22.36492665,66.61308598,2.419667111,-3.034340491,0.4565352792,-0.6839782243,-3.723761921,0.1486373726,456.0488281,443.6367188,899.6855469,0.4166543999999939,0.6654213000000242,-3.907280000007063
67,-0.2992546713,56.30642676,-22.36911869,66.60917869,2.412705078,-3.045308799,0.4569519336,-0.6835994119,-3.730536537,0.1493027939,456.3945313,443.765625,900.1601563,0.4166544000000494,0.6654212999999964,-3.907290000000785
68,-0.2990606563,56.31386721,-22.37331073,66.6052714,2.405743044,-3.056277107,0.457368588,-0.6832205994,-3.737311153,0.1499682152,457.0117188,442.7246094,899.7363281,0.4166543999999939,0.6654212999999964,-3.907289999986574
69,-0.2986566015,56.32048325,-22.37730226,66.60227095,2.39868266,-3.067298011,0.457569797,-0.6828072545,-3.744179859,0.1506279142,456.6757813,442.4160156,899.0917969,0.20120899999998,0.6596989999999858,-3.0004500000018197
70,-0.2982525466,56.32709929,-22.38129378,66.59927049,2.391622277,-3.078318915,0.457771006,-0.6823939095,-3.751048566,0.1512876132,457.3183594,442.4160156,899.734375,0.20120899999998,0.6596990000000136,-3.0004600000097525
71,-0.2978484918,56.33371534,-22.3852853,66.59627003,2.384561893,-3.089339819,0.457972215,-0.6819805645,-3.757917272,0.1519473122,458.5800781,441.9882813,900.5683594,0.2012090000000355,0.6596989999999858,-3.0004599999955417
72,-0.2974444369,56.34033138,-22.38927683,66.59326957,2.377501509,-3.100360723,0.458173424,-0.6815672196,-3.764785979,0.1526070113,458.6074219,441.6855469,900.2929688,0.20120899999998,0.6596991000000219,-3.0004599999955417
73,-0.2970403821,56.34694742,-22.39326835,66.59026912,2.370441125,-3.111381627,0.458374633,-0.6811538746,-3.771654685,0.1532667103,458.6074219,441.3808594,899.9882813,0.20120899999998,0.6596989999999858,-3.0004500000018197
74,-0.2963907878,56.35276417,-22.39697272,66.58832682,2.363310445,-3.122425348,0.4583231506,-0.680695833,-3.778622269,0.1539186116,458.9296875,441.3808594,900.3105469,-0.051482399999969175,0.6519013000000073,-1.9422999999960666
75,-0.2957411934,56.35858091,-22.40067709,66.58638453,2.356179765,-3.133469069,0.4582716681,-0.6802377913,-3.785589854,0.1545705129,458.9296875,441.3808594,900.3105469,-0.05148250000003296,0.6519013000000073,-1.9422900000023446
76,-0.2950915991,56.36439766,-22.40438146,66.58444224,2.349049084,-3.14451279,0.4582201856,-0.6797797497,-3.792557438,0.1552224142,459.875,441.3652344,901.2402344,-0.05148249999997745,0.6519012999999796,-1.9422900000023446
77,-0.2944420047,56.3702144,-22.40808583,66.58249995,2.341918404,-3.155556511,0.4581687032,-0.6793217081,-3.799525022,0.1558743155,460.1972656,440.6445313,900.8417969,-0.051482399999969175,0.6519013000000073,-1.9422900000023446
78,-0.2937924104,56.37603115,-22.4117902,66.58055766,2.334787724,-3.166600232,0.4581172207,-0.6788636664,-3.806492606,0.1565262168,460.1972656,440.3398438,900.5371094,-0.05148250000003296,0.6519013000000073,-1.9422900000023446
79,-0.2928746229,56.38114321,-22.41510279,66.57977831,2.327616908,-3.17764761,0.4577900042,-0.6783518368,-3.813563619,0.1571697083,460.5351563,440.3398438,900.875,-0.3272165000000049,0.6434914999999819,-0.7793500000019549
80,-0.2919568355,56.38625527,-22.41841538,66.57899897,2.320446092,-3.188694989,0.4574627877,-0.6778400072,-3.820634631,0.1578131998,460.8867188,440.0332031,900.9199219,-0.3272165000000049,0.6434915000000097,-0.779339999994022
81,-0.2910390481,56.39136734,-22.42172797,66.57821962,2.313275276,-3.199742367,0.4571355711,-0.6773281775,-3.827705644,0.1584566913,461.1953125,440.0332031,901.2285156,-0.32721659999995767,0.6434915000000097,-0.7793500000019549
82,-0.2901212606,56.3964794,-22.42504056,66.57744028,2.30610446,-3.210789745,0.4568083546,-0.6768163479,-3.834776656,0.1591001828,461.4980469,439.7285156,901.2265625,-0.3272165000000049,0.6434914999999819,-0.779339999994022
83,-0.2892034732,56.40159146,-22.42835315,66.57666093,2.298933644,-3.221837123,0.4564811381,-0.6763045182,-3.841847669,0.1597436743,461.4980469,439.4199219,900.9179688,-0.3272165000000049,0.6434915000000097,-0.7793500000019549
84,-0.2880093069,56.40616479,-22.43115389,66.57710134,2.291754708,-3.232882673,0.4558714481,-0.6757316227,-3.849026028,0.1603801192,462.1601563,439.4199219,901.5800781,-0.6096899999999961,0.636444900000005,0.4404099999959499
85,-0.2868151407,56.41073812,-22.43395462,66.57754175,2.284575771,-3.243928223,0.4552617582,-0.6751587271,-3.856204388,0.161016564,462.4550781,438.3808594,900.8359375,-0.6096899000000433,0.6364447999999967,0.4404099999959499
86,-0.2856209744,56.41531145,-22.43675536,66.57798216,2.277396834,-3.254973773,0.4546520683,-0.6745858315,-3.863382747,0.1616530088,463.1035156,438.0761719,901.1796875,-0.6096898999999878,0.6364447999999967,0.44041000001016073
87,-0.2844268082,56.41988477,-22.4395561,66.57842257,2.270217898,-3.266019324,0.4540423783,-0.6740129359,-3.870561106,0.1622894536,463.4257813,437.9472656,901.3730469,-0.6096899999999961,0.6364447999999967,0.4404099999959499
