Time,Hip/Shoulder Separation,Shoulder Horizontal Abduction,Shoulder Abduction,Elbow Flexion,Torso Lateral Tilt,Torso Forward Tilt,Torso Rotation,Pelvis Lateral Tilt,Pelvis Forward Tilt,Pelvis Rotation,Front Vertical Force,Back Vertical Force,Total Vertical Force,Torso Angular Velocity,Pelvis Angular Velocity,Arm Angular Velocity
0,-3.582659012,85.2257528,-6.07694384,34.66637853,4.924849154,-10.48009331,2.735020132,-1.346154252,-3.387416943,-0.6817326606,242.6054688,375.7519531,618.3574219,-0.0,-0.0,0.0
1,-3.578792111,85.22109669,-6.083862305,34.65716488,4.92297829,-10.47478179,2.737429811,-1.344373925,-3.388549756,-0.6758115039,241.9707031,376.6621094,618.6328125,2.409679000000331,5.921156700000041,-9.213649999999518
2,-3.574925209,85.21644058,-6.09078077,34.64795124,4.921107426,-10.46947027,2.73983949,-1.342593599,-3.389682568,-0.6698903472,240.0664063,377.703125,617.7695313,2.409678999999887,5.921156700000041,-9.213640000005796
3,-3.571058307,85.21178447,-6.097699235,34.6387376,4.919236561,-10.46415875,2.742249169,-1.340813272,-3.390815381,-0.6639691905,237.8203125,378.3105469,616.1308594,2.409678999999887,5.92115669999993,-9.21363999999869
4,-3.567191406,85.20712836,-6.1046177,34.62952395,4.917365697,-10.45884723,2.744658848,-1.339032945,-3.391948194,-0.6580480338,237.5039063,379.0449219,616.5488281,2.409678999999887,5.921156700000041,-9.213649999999518
5,-3.563324504,85.20247225,-6.111536165,34.62031031,4.915494833,-10.45353571,2.747068527,-1.337252618,-3.393081006,-0.6521268771,235.5585938,379.65625,615.2148438,2.409679000000331,5.921156700000041,-9.21363999999869
6,-3.560034869,85.19767986,-6.118701638,34.61127784,4.913318086,-10.44796833,2.749972569,-1.335608629,-3.394138289,-0.646274712,233.0195313,380.8886719,613.9082031,2.90404199999994,5.852165099999973,-9.03247000000107
7,-3.556745233,85.19288747,-6.12586711,34.60224538,4.911141339,-10.44240095,2.752876611,-1.333964639,-3.395195571,-0.640422547,232.3789063,382.2382813,614.6171875,2.90404199999994,5.852164999999965,-9.032460000000242
8,-3.553455598,85.18809508,-6.133032583,34.59321291,4.908964591,-10.43683357,2.755780653,-1.332320649,-3.396252854,-0.6345703819,230.1191406,382.5410156,612.6601563,2.90404199999994,5.852165099999973,-9.03247000000107
9,-3.550165963,85.18330269,-6.140198056,34.58418045,4.906787844,-10.43126619,2.758684695,-1.33067666,-3.397310136,-0.6287182169,228.2226563,383.8925781,612.1152344,2.90404199999994,5.852165000000076,-9.032460000000242
10,-3.546876328,85.17851029,-6.147363529,34.57514798,4.904611097,-10.42569881,2.761588737,-1.32903267,-3.398367418,-0.6228660518,227.5722656,384.8066406,612.3789063,2.90404199999994,5.852165099999973,-9.03247000000107
11,-3.544196017,85.17363722,-6.154696637,34.56634378,4.902115139,-10.41989053,2.764985559,-1.327550964,-3.399353185,-0.6171132949,225.6523438,385.5410156,611.1933594,3.3968220000000215,5.752756899999989,-8.80420000000015
12,-3.541515706,85.16876414,-6.162029744,34.55753959,4.89961918,-10.41408225,2.768382382,-1.326069259,-3.400338952,-0.611360538,223.7089844,385.7128906,609.421875,3.3968230000001043,5.752756899999989,-8.804189999999323
13,-3.538835395,85.16389107,-6.169362852,34.54873539,4.897123222,-10.40827397,2.771779204,-1.324587553,-3.40132472,-0.605607781,222.765625,386.4589844,609.2246094,3.3968220000000215,5.752756999999997,-8.80420000000015
14,-3.536155084,85.15901799,-6.176695959,34.53993119,4.894627263,-10.40246569,2.775176027,-1.323105847,-3.402310487,-0.5998550241,220.5214844,387.3769531,607.8984375,3.3968230000001043,5.752756899999989,-8.80420000000015
15,-3.533474773,85.15414492,-6.184029066,34.53112699,4.892131305,-10.39665741,2.77857285,-1.321624142,-3.403296254,-0.5941022671,218.2929688,388.1132813,606.40625,3.3968230000001043,5.752756999999997,-8.80420000000015
16,-3.531415358,85.14923306,-6.191463824,34.52260082,4.889304114,-10.39061873,2.782449813,-1.320330555,-3.404218753,-0.5884701629,217.9726563,388.7207031,606.6933594,3.8769629999997335,5.632104200000043,-8.526169999996114
17,-3.529355942,85.14432119,-6.198898581,34.51407464,4.886476924,-10.38458005,2.786326777,-1.319036967,-3.405141252,-0.5828380587,216.6601563,389.0253906,605.6855469,3.8769640000002603,5.632104199999932,-8.526180000004047
18,-3.527296526,85.13940933,-6.206333338,34.50554846,4.883649734,-10.37854137,2.79020374,-1.31774338,-3.406063751,-0.5772059545,214.1054688,389.3398438,603.4453125,3.8769629999997335,5.632104200000043,-8.526179999996941
19,-3.525237111,85.13449746,-6.213768095,34.49702228,4.880822544,-10.37250268,2.794080704,-1.316449793,-3.406986251,-0.5715738503,212.8300781,389.9511719,602.78125,3.8769640000002603,5.632104200000043,-8.526179999996941
20,-3.523177695,85.1295856,-6.221202853,34.4884961,4.877995354,-10.366464,2.797957667,-1.315156206,-3.40790875,-0.5659417461,211.8652344,390.5683594,602.4335938,3.8769629999997335,5.632104199999932,-8.526180000004047
21,-3.521721253,85.12464935,-6.228704225,34.48029684,4.874778444,-10.3602184,2.802512376,-1.314088153,-3.408776551,-0.5602098149,210.2695313,391.1777344,601.4472656,4.554709000000212,5.73193120000004,-8.199259999997821
22,-3.520264811,85.1197131,-6.236205598,34.47209757,4.871561534,-10.3539728,2.807067084,-1.3130201,-3.409644352,-0.5544778837,209.2871094,391.7792969,601.0664063,4.554707999999685,5.73193120000004,-8.199269999998648
23,-3.518808369,85.11477685,-6.24370697,34.4638983,4.868344624,-10.3477272,2.811621792,-1.311952047,-3.410512154,-0.5487459525,207.6640625,392.0820313,599.7460938,4.554708000000129,5.731931199999929,-8.199270000005754
24,-3.517351927,85.10984061,-6.251208343,34.45569904,4.865127714,-10.3414816,2.8161765,-1.310883995,-3.411379955,-0.5430140213,204.7773438,392.6992188,597.4765625,4.554708000000129,5.73193120000004,-8.199259999997821
25,-3.515895485,85.10490436,-6.258709715,34.44749977,4.861910804,-10.335236,2.820731209,-1.309815942,-3.412247756,-0.5372820901,204.7382813,393.7402344,598.4785156,4.554708999999768,5.731931199999929,-8.199269999998648
26,-3.514989727,85.09992133,-6.266285965,34.43967106,4.858321272,-10.32875989,2.825674759,-1.308979445,-3.413084362,-0.5316880156,202.4863281,394.0449219,596.53125,4.94355000000013,5.594074500000046,-7.828709999998296
27,-3.514083969,85.09493829,-6.273862215,34.43184235,4.85473174,-10.32228377,2.83061831,-1.308142947,-3.413920967,-0.5260939411,201.234375,394.0449219,595.2792969,4.9435510000002125,5.594074500000046,-7.828710000005401
28,-3.513178211,85.08995526,-6.281438465,34.42401364,4.851142208,-10.31580765,2.835561861,-1.30730645,-3.414757572,-0.5204998666,200.2773438,394.9628906,595.2402344,4.943550999999768,5.594074499999935,-7.828709999998296
29,-3.512272453,85.08497223,-6.289014715,34.41618493,4.847552676,-10.30933153,2.840505411,-1.306469953,-3.415594178,-0.5149057921,198.3339844,395.2597656,593.59375,4.94355000000013,5.594074500000046,-7.828709999998296
30,-3.511366695,85.0799892,-6.296590965,34.40835622,4.843963144,-10.30285541,2.845448962,-1.305633455,-3.416430783,-0.5093117176,196.6835938,395.8828125,592.5664063,4.943550999999768,5.594074499999935,-7.828709999998296
31,-3.510936881,85.07491589,-6.304275347,34.40093288,4.839973682,-10.29614201,2.850707776,-1.305043383,-3.417255604,-0.5038535235,196.0507813,397.2285156,593.2792969,5.258814000000278,5.458194100000036,-7.423340000002554
32,-3.510507067,85.06984258,-6.311959728,34.39350954,4.83598422,-10.2894286,2.855966591,-1.304453311,-3.418080424,-0.4983953295,194.7871094,397.2324219,592.0195313,5.258814999999917,5.458194000000027,-7.423340000002554
33,-3.510077253,85.06476927,-6.319644109,34.3860862,4.831994758,-10.2827152,2.861225406,-1.303863239,-3.418905245,-0.4929371354,193.1210938,398.1464844,591.2675781,5.258814999999917,5.45819409999998,-7.423339999995449
34,-3.509647439,85.05969596,-6.327328491,34.37866286,4.828005296,-10.2760018,2.86648422,-1.303273166,-3.419730065,-0.4874789413,192.8007813,399.0761719,591.8769531,5.258813999999834,5.45819409999998,-7.423340000002554
35,-3.509217625,85.05462265,-6.335012872,34.37123951,4.824015833,-10.26928839,2.871743035,-1.302683094,-3.420554886,-0.4820207472,191.5136719,399.0761719,590.5898438,5.258815000000361,5.458194100000036,-7.423349999996276
36,-3.509196439,85.04943078,-6.342820674,34.36424256,4.819608426,-10.26233942,2.877256459,-1.302348536,-3.421389579,-0.476691565,190.1992188,399.6894531,589.8886719,5.513423999999656,5.329182200000004,-6.996950000001334
37,-3.509175253,85.04423891,-6.350628475,34.3572456,4.815201019,-10.25539044,2.882769883,-1.302013979,-3.422224272,-0.4713623828,189.8925781,400.2988281,590.1914063,5.5134240000001,5.329182200000004,-6.9969600000021615
38,-3.509154067,85.03904704,-6.358436277,34.35024865,4.810793612,-10.24844147,2.888283307,-1.301679421,-3.423058965,-0.4660332006,187.9375,400.6015625,588.5390625,5.5134240000001,5.329182200000004,-6.996950000001334
39,-3.509132881,85.03385517,-6.366244079,34.34325169,4.806386205,-10.24149249,2.893796731,-1.301344863,-3.423893658,-0.4607040184,187.3125,401.21875,588.53125,5.5134240000001,5.3291821999999485,-6.996959999995056
40,-3.509111695,85.0286633,-6.37405188,34.33625474,4.801978798,-10.23454352,2.899310155,-1.301010305,-3.424728352,-0.4553748362,187.0,401.9609375,588.9609375,5.5134240000001,5.329182200000004,-6.996950000001334
41,-3.509446544,85.0233467,-6.381972567,34.32968825,4.797147246,-10.22737032,2.905036833,-1.30093473,-3.425594437,-0.4501637165,186.6582031,402.1425781,588.8007813,5.7266779999998185,5.211119700000044,-6.566490000004421
42,-3.509781392,85.0180301,-6.389893254,34.32312177,4.792315693,-10.22019712,2.910763512,-1.300859155,-3.426460522,-0.4449525968,185.3554688,403.1816406,588.5371094,5.726678999999901,5.211119699999989,-6.5664799999964885
43,-3.51011624,85.0127135,-6.397813942,34.31655528,4.787484141,-10.21302393,2.916490191,-1.300783581,-3.427326607,-0.439741477,185.0351563,403.7988281,588.8339844,5.726678999999901,5.211119799999997,-6.566489999997316
44,-3.510451089,85.0073969,-6.405734629,34.3099888,4.782652588,-10.20585073,2.92221687,-1.300708006,-3.428192692,-0.4345303573,184.3886719,403.7988281,588.1875,5.726679000000345,5.211119699999989,-6.566480000003594
45,-3.510785937,85.0020803,-6.413655316,34.30342231,4.777821036,-10.19867754,2.927943548,-1.300632431,-3.429058777,-0.4293192376,183.3945313,404.7304688,588.125,5.7266779999998185,5.211119699999989,-6.566489999997316
46,-3.511433784,84.99664624,-6.421663338,34.29727256,4.772567441,-10.19129752,2.933855229,-1.300813614,-3.429976117,-0.4242122307,183.1171875,405.3398438,588.4570313,5.9116810000001685,5.1070068999999885,-6.149749999998733
47,-3.512081631,84.99121219,-6.429671361,34.29112281,4.767313846,-10.1839175,2.939766909,-1.300994797,-3.430893458,-0.4191052239,182.796875,405.6503906,588.4472656,5.911679999999642,5.107006800000035,-6.149750000005838
48,-3.512729478,84.98577813,-6.437679384,34.28497306,4.762060251,-10.17653748,2.945678589,-1.30117598,-3.431810799,-0.413998217,182.4042969,406.9960938,589.4003906,5.911680000000086,5.1070068999999885,-6.149749999998733
49,-3.513377325,84.98034408,-6.445687406,34.27882331,4.756806657,-10.16915746,2.951590269,-1.301357164,-3.43272814,-0.4088912102,181.7675781,407.2988281,589.0664063,5.911680000000086,5.10700679999998,-6.149749999998733
50,-3.514025173,84.97491002,-6.453695429,34.27267356,4.751553062,-10.16177744,2.95750195,-1.301538347,-3.433645481,-0.4037842033,182.09375,407.5976563,589.6914063,5.9116810000001685,5.1070069000000435,-6.149749999998733
51,-3.514942673,84.96936282,-6.461771244,34.26690894,4.745882488,-10.154211,2.96357241,-1.30196916,-3.434633823,-0.3987655525,181.7773438,408.5234375,590.3007813,6.070459999999667,5.0186507999999685,-5.764620000000775
52,-3.515860172,84.96381561,-6.469847059,34.26114431,4.740211915,-10.14664457,2.96964287,-1.302399972,-3.435622166,-0.3937469016,181.765625,410.1621094,591.9277344,6.070460000000111,5.018650900000032,-5.764630000001603
53,-3.516777672,84.9582684,-6.477922874,34.25537969,4.734541341,-10.13907813,2.97571333,-1.302830785,-3.436610509,-0.3887282508,181.4394531,410.4648438,591.9042969,6.070460000000111,5.0186507999999685,-5.764620000000775
54,-3.517695172,84.95272119,-6.485998689,34.24961507,4.728870768,-10.13151169,2.981783791,-1.303261598,-3.437598851,-0.3837095999,182.0585938,411.8144531,593.8730469,6.070460999999749,5.018650900000032,-5.764620000000775
55,-3.518612672,84.94717398,-6.494074504,34.24385045,4.723200194,-10.12394526,2.987854251,-1.303692411,-3.438587194,-0.3786909491,181.7460938,412.4316406,594.1777344,6.070460000000111,5.0186507999999685,-5.764620000000775
56,-3.519746335,84.94150163,-6.502221525,34.23842429,4.717115246,-10.11621436,2.994049168,-1.304362141,-3.439663839,-0.3737432024,182.3964844,413.4863281,595.8828125,6.1949170000001885,4.947746700000033,-5.4261599999989585
57,-3.520879998,84.93582928,-6.510368546,34.23299813,4.711030297,-10.10848347,3.000244084,-1.305031872,-3.440740483,-0.3687954557,183.3769531,414.40625,597.7832031,6.194916000000106,4.9477466999999775,-5.4261599999989585
58,-3.522013661,84.93015693,-6.518515567,34.22757197,4.704945349,-10.10075257,3.006439001,-1.305701602,-3.441817128,-0.363847709,183.9921875,415.0019531,598.9941406,6.194916999999744,4.9477466999999775,-5.4261599999989585
59,-3.523147324,84.92448458,-6.526662588,34.2221458,4.6988604,-10.09302168,3.012633917,-1.306371333,-3.442893773,-0.3588999623,184.6523438,415.3183594,599.9707031,6.194916000000106,4.947746700000033,-5.426169999999786
60,-3.524280987,84.91881223,-6.534809609,34.21671964,4.692775451,-10.08529078,3.018828834,-1.307041064,-3.443970417,-0.3539522156,185.5644531,415.6308594,601.1953125,6.194916999999744,4.9477466999999775,-5.4261599999989585
61,-3.525563373,84.9129799,-6.543062811,34.21157249,4.686273108,-10.07741777,3.025100885,-1.307936918,-3.445149646,-0.3490571368,185.8867188,416.5488281,602.4355469,6.272051000000278,4.895078800000007,-5.147149999999101
62,-3.526845758,84.90714757,-6.551316013,34.20642533,4.679770765,-10.06954476,3.031372936,-1.308832773,-3.446328874,-0.3441620581,186.8613281,417.1484375,604.0097656,6.272050999999834,4.895078699999999,-5.1471599999999285
63,-3.528128143,84.90131524,-6.559569215,34.20127817,4.673268422,-10.06167175,3.037644987,-1.309728627,-3.447508103,-0.3392669793,188.1425781,418.4785156,606.6210938,6.272051000000278,4.895078800000007,-5.1471599999999285
64,-3.529410529,84.89548291,-6.567822417,34.19613101,4.666766079,-10.05379874,3.043917038,-1.310624482,-3.448687331,-0.3343719005,188.7578125,418.8105469,607.5683594,6.272050999999834,4.895078800000007,-5.1471599999999285
65,-3.530692914,84.88965057,-6.576075618,34.19098385,4.660263736,-10.04592573,3.050189089,-1.311520336,-3.44986656,-0.3294768218,190.3789063,419.1132813,609.4921875,6.272050999999834,4.895078699999999,-5.1471599999999285
66,-3.532042744,84.88360233,-6.584499129,34.18604758,4.653337744,-10.0379327,3.056477215,-1.312629714,-3.451161413,-0.3246160199,192.3066406,420.4589844,612.765625,6.2881260000002825,4.860801899999989,-4.936270000001741
67,-3.533392575,84.87755409,-6.59292264,34.1811113,4.646411751,-10.02993966,3.062765341,-1.313739091,-3.452456266,-0.319755218,192.6445313,420.3300781,612.9746094,6.2881259999998385,4.860801899999989,-4.936280000002569
68,-3.534742405,84.87150585,-6.601346151,34.17617503,4.639485759,-10.02194662,3.069053467,-1.314848468,-3.453751119,-0.3148944161,193.5996094,420.9394531,614.5390625,6.2881259999998385,4.860801899999989,-4.936269999994636
69,-3.536092235,84.86545761,-6.609769662,34.17123875,4.632559767,-10.01395358,3.075341592,-1.315957845,-3.455045972,-0.3100336142,194.2421875,421.6757813,615.9179688,6.2881250000002,4.860801900000045,-4.936280000002569
70,-3.537442065,84.85940936,-6.618193173,34.16630248,4.625633774,-10.00596054,3.081629718,-1.317067223,-3.456340825,-0.3051728123,195.1972656,421.9921875,617.1894531,6.2881259999998385,4.860801899999989,-4.936270000001741
71,-3.538784956,84.85309999,-6.62684127,34.16150437,4.618286288,-9.997877595,3.087879541,-1.318380049,-3.45776078,-0.3003275298,195.8398438,422.5996094,618.4394531,6.249823000000099,4.845282499999992,-4.798109999995859
72,-3.540127847,84.84679061,-6.635489367,34.15670626,4.610938801,-9.989794646,3.094129364,-1.319692875,-3.459180735,-0.2954822474,197.4355469,423.640625,621.0761719,6.249823000000099,4.8452823999999834,-4.798110000002964
73,-3.541470738,84.84048123,-6.644137463,34.15190815,4.603591315,-9.981711698,3.100379187,-1.321005701,-3.46060069,-0.2906369649,198.0664063,424.5546875,622.6210938,6.249823000000099,4.845282499999992,-4.798110000002964
74,-3.542813629,84.83417185,-6.65278556,34.14711004,4.596243828,-9.97362875,3.106629009,-1.322318527,-3.462020644,-0.2857916825,199.328125,424.8574219,624.1855469,6.249822000000016,4.845282400000039,-4.798109999995859
75,-3.54415652,84.82786248,-6.661433656,34.14231193,4.588896341,-9.965545802,3.112878832,-1.323631353,-3.463440599,-0.2809464001,200.6328125,425.1621094,625.7949219,6.249822999999655,4.8452823999999834,-4.798110000002964
76,-3.545436439,84.82127379,-6.670330504,34.13757745,4.581145228,-9.957414949,3.119052853,-1.325141946,-3.464992007,-0.2760984809,200.6601563,425.171875,625.8320313,6.174021000000085,4.847919199999994,-4.734479999996211
77,-3.546716358,84.81468511,-6.679227351,34.13284297,4.573394115,-9.949284096,3.125226874,-1.326652539,-3.466543414,-0.2712505618,202.5332031,425.171875,627.7050781,6.174021000000085,4.847919099999986,-4.734480000003316
78,-3.547996277,84.80809643,-6.688124199,34.12810849,4.565643002,-9.941153243,3.131400895,-1.328163132,-3.468094822,-0.2664026426,204.4589844,425.7773438,630.2363281,6.174021000000085,4.847919199999994,-4.734479999996211
79,-3.549276196,84.80150774,-6.697021046,34.12337402,4.557891889,-9.93302239,3.137574916,-1.329673724,-3.469646229,-0.2615547235,204.7792969,426.1035156,630.8828125,6.174021000000085,4.847919100000042,-4.734470000002489
80,-3.550556115,84.79491906,-6.705917894,34.11863954,4.550140775,-9.924891537,3.143748936,-1.331184317,-3.471197636,-0.2567068044,206.0703125,426.1035156,632.1738281,6.174020000000002,4.847919099999986,-4.734480000003316
81,-3.551733089,84.78805749,-6.715059383,34.11389503,4.542018882,-9.916762929,3.149823224,-1.332893477,-3.472884709,-0.2518395891,207.3789063,426.1074219,633.4863281,6.074287999999761,4.867215300000005,-4.7445099999947615
82,-3.552910063,84.78119592,-6.724200873,34.10915053,4.533896988,-9.908634321,3.155897511,-1.334602636,-3.474571781,-0.2469723738,208.0273438,426.4082031,634.4355469,6.074287000000123,4.867215299999978,-4.7445000000010396
83,-3.554087036,84.77433436,-6.733342363,34.10440602,4.525775094,-9.900505713,3.161971799,-1.336311795,-3.476258854,-0.2421051586,209.3046875,426.7109375,636.015625,6.074287999999761,4.867215199999997,-4.744510000001867
84,-3.55526401,84.76747279,-6.742483853,34.09966152,4.5176532,-9.892377105,3.168046086,-1.338020955,-3.477945926,-0.2372379433,209.9394531,426.7109375,636.6503906,6.074287000000123,4.867215300000005,-4.7445000000010396
85,-3.556440983,84.76061122,-6.751625343,34.09491702,4.509531307,-9.884248497,3.174120374,-1.339730114,-3.479632999,-0.232370728,210.8964844,427.3203125,638.2167969,6.074288000000205,4.867215300000005,-4.7445000000010396
86,-3.557485999,84.75350085,-6.760986712,34.09009047,4.501084028,-9.876175683,3.180078927,-1.341647014,-3.481455578,-0.227469456,211.5117188,427.3203125,638.8320313,5.9585529999997,4.901272000000012,-4.826549999997098
87,-3.558531014,84.74639047,-6.770348081,34.08526393,4.492636749,-9.868102868,3.186037481,-1.343563914,-3.483278158,-0.2225681839,212.5195313,427.3203125,639.8398438,5.958554000000227,4.901272099999993,-4.826539999996271
88,-3.559576029,84.7392801,-6.77970945,34.08043738,4.484189469,-9.860030053,3.191996034,-1.345480815,-3.485100738,-0.2176669119,212.5195313,427.9257813,640.4453125,5.958553000000144,4.9012719999999845,-4.826550000004204
