Time,Hip/Shoulder Separation,Shoulder Horizontal Abduction,Shoulder Abduction,Elbow Flexion,Torso Lateral Tilt,Torso Forward Tilt,Torso Rotation,Pelvis Lateral Tilt,Pelvis Forward Tilt,Pelvis Rotation,Front Vertical Force,Back Vertical Force,Total Vertical Force,Torso Angular Velocity,Pelvis Angular Velocity,Arm Angular Velocity
0,-2.305117989,91.2657376,1.522581953,43.20373752,6.498602193,-10.02228289,0.4748934848,-6.369125841,1.151618847,-0.5646699128,319.3847656,296.1386719,615.5234375,-0.0,-0.0,0.0
1,-2.30595846,91.26608408,1.522875989,43.20679532,6.500599695,-10.02362032,0.4762940275,-6.365545676,1.147778104,-0.5650988603,319.3847656,296.5859375,615.9707031,1.400542700000007,-0.4289474999999987,3.0578000000005545
2,-2.30679893,91.26643057,1.523170025,43.20985312,6.502597197,-10.02495775,0.4776945701,-6.361965511,1.143937362,-0.5655278077,319.3710938,296.2851563,615.65625,1.4005425999999987,-0.42894739999999043,3.0578000000005545
3,-2.3076394,91.26677705,1.52346406,43.21291091,6.504594699,-10.02629518,0.4790951128,-6.358385346,1.140096619,-0.5659567552,319.0878906,296.1484375,615.2363281,1.400542700000007,-0.4289474999999987,3.057789999999727
4,-2.308479871,91.26712353,1.523758096,43.21596871,6.506592201,-10.02763261,0.4804956555,-6.354805181,1.136255877,-0.5663857026,318.4316406,295.8457031,614.2773438,1.400542700000007,-0.42894739999999043,3.0578000000005545
5,-2.309320341,91.26747001,1.524052132,43.2190265,6.508589703,-10.02897004,0.4818961981,-6.351225016,1.132415134,-0.5668146501,318.7675781,295.9804688,614.7480469,1.4005425999999987,-0.4289474999999987,3.057789999999727
6,-2.310307046,91.2676261,1.524120161,43.22236775,6.510449807,-10.03029866,0.4833251718,-6.347689458,1.128582914,-0.5673512576,318.7675781,295.9804688,614.7480469,1.4289737000000025,-0.5366075000000636,3.341249999998297
7,-2.311293751,91.26778219,1.524188191,43.22570899,6.512309911,-10.03162728,0.4847541454,-6.3441539,1.124750693,-0.5678878651,318.7285156,295.9804688,614.7089844,1.4289735999999942,-0.5366074999999526,3.341240000004575
8,-2.312280456,91.26793828,1.52425622,43.22905023,6.514170016,-10.0329559,0.486183119,-6.340618342,1.120918472,-0.5684244727,319.0488281,295.9765625,615.0253906,1.4289735999999942,-0.5366075999999609,3.3412399999974696
9,-2.313267161,91.26809436,1.52432425,43.23239147,6.51603012,-10.03428452,0.4876120926,-6.337082784,1.117086252,-0.5689610802,318.4121094,295.5214844,613.9335938,1.4289735999999942,-0.5366075000000636,3.341240000004575
10,-2.314253866,91.26825045,1.524392279,43.23573271,6.517890224,-10.03561315,0.4890410662,-6.333547226,1.113254031,-0.5694976877,318.40625,295.5214844,613.9277344,1.4289735999999942,-0.5366074999999526,3.3412399999974696
11,-2.315334088,91.26820531,1.524221784,43.23927746,6.519607128,-10.03691897,0.4904810992,-6.330048714,1.109446625,-0.5701081059,317.7851563,295.5429688,613.328125,1.4400330000000072,-0.6104182000000735,3.5447499999960996
12,-2.316414311,91.26816016,1.52405129,43.24282221,6.521324032,-10.03822479,0.4919211323,-6.326550203,1.10563922,-0.5707185241,317.4570313,296.2617188,613.71875,1.4400331000000155,-0.6104181999999625,3.544750000003205
13,-2.317494533,91.26811501,1.523880795,43.24636695,6.523040936,-10.03953061,0.4933611654,-6.323051691,1.101831814,-0.5713289423,318.1074219,295.96875,614.0761719,1.4400331000000155,-0.6104181999999625,3.5447400000023777
14,-2.318574755,91.26806986,1.5237103,43.2499117,6.52475784,-10.04083644,0.4948011984,-6.319553179,1.098024409,-0.5719393605,317.7734375,295.9804688,613.7539063,1.4400329999999517,-0.6104182000000735,3.5447499999960996
15,-2.319654978,91.26802471,1.523539806,43.25345645,6.526474743,-10.04214226,0.4962412315,-6.316054668,1.094217003,-0.5725497786,317.4726563,296.2792969,613.7519531,1.4400331000000155,-0.6104180999999542,3.544750000003205
16,-2.32078009,91.26776532,1.523115931,43.25711364,6.528042679,-10.04341331,0.4976810211,-6.312586041,1.090446541,-0.5731983366,317.4726563,296.2792969,613.7519531,1.4397896000000188,-0.6485579999999658,3.6571899999984225
17,-2.321905202,91.26750592,1.522692057,43.26077083,6.529610616,-10.04468436,0.4991208108,-6.309117414,1.086676079,-0.5738468945,316.828125,295.9765625,612.8046875,1.4397896999999715,-0.6485579000000685,3.6571899999984225
18,-2.323030314,91.26724652,1.522268183,43.26442802,6.531178552,-10.04595541,0.5005606004,-6.305648787,1.082905617,-0.5744954525,316.828125,296.4140625,613.2421875,1.4397896000000743,-0.6485579999999658,3.6571899999984225
19,-2.324155426,91.26698712,1.521844309,43.26808521,6.532746488,-10.04722646,0.50200039,-6.30218016,1.079135155,-0.5751440104,316.5214844,296.4140625,612.9355469,1.4397895999999077,-0.6485578999999575,3.657190000005528
20,-2.325280538,91.26672772,1.521420434,43.2717424,6.534314424,-10.0484975,0.5034401797,-6.298711533,1.075364693,-0.5757925684,316.1933594,297.3261719,613.5195313,1.439789700000027,-0.6485580000000768,3.6571899999984225
21,-2.32640842,91.26623982,1.52072706,43.27541357,6.535728382,-10.04972289,0.5048750666,-6.295266637,1.071639555,-0.5764435315,315.8730469,296.8789063,612.7519531,1.434886900000043,-0.6509631000000127,3.6711699999969483
22,-2.327536302,91.26575192,1.520033686,43.27908474,6.53714234,-10.05094827,0.5063099535,-6.291821741,1.067914418,-0.5770944946,316.4941406,297.3261719,613.8203125,1.434886899999932,-0.6509630999999017,3.6711700000040537
23,-2.328664184,91.26526402,1.519340312,43.28275591,6.538556298,-10.05217366,0.5077448405,-6.288376845,1.06418928,-0.5777454578,315.5371094,297.0234375,612.5605469,1.4348870000000513,-0.650963200000021,3.6711699999969483
24,-2.329792067,91.26477612,1.518646938,43.28642708,6.539970257,-10.05339904,0.5091797274,-6.284931949,1.060464142,-0.5783964209,315.5371094,297.0078125,612.5449219,1.434886899999932,-0.6509631000000127,3.6711700000040537
25,-2.330919949,91.26428822,1.517953564,43.29009825,6.541384215,-10.05462443,0.5106146143,-6.281487052,1.056739004,-0.579047384,315.5390625,297.0234375,612.5625,1.434886900000043,-0.6509631000000127,3.6711699999969483
26,-2.332016143,91.2635577,1.516974851,43.29368275,6.542640014,-10.05579438,0.5120461038,-6.278060929,1.053065871,-0.579666316,315.2167969,297.0195313,612.2363281,1.4314895000000494,-0.618931999999961,3.584500000002322
27,-2.333112338,91.26282718,1.515996138,43.29726726,6.543895812,-10.05696433,0.5134775933,-6.274634805,1.049392738,-0.580285248,314.875,297.3359375,612.2109375,1.4314894999999384,-0.618932000000072,3.584509999996044
28,-2.334208533,91.26209666,1.515017426,43.30085176,6.545151611,-10.05813428,0.5149090828,-6.271208681,1.045719605,-0.58090418,314.8886719,297.3359375,612.2246094,1.4314895000000494,-0.618931999999961,3.584500000002322
29,-2.335304728,91.26136614,1.514038713,43.30443627,6.54640741,-10.05930423,0.5163405724,-6.267782558,1.042046473,-0.581523112,314.5859375,297.7597656,612.3457031,1.4314895999999466,-0.618931999999961,3.584509999996044
30,-2.336400923,91.26063561,1.51306,43.30802077,6.547663208,-10.06047418,0.5177720619,-6.264356434,1.03837334,-0.582142044,313.953125,298.0585938,612.0117188,1.4314895000000494,-0.618932000000072,3.584500000002322
31,-2.337438436,91.2596492,1.511781249,43.311421,6.548757803,-10.06158104,0.519206383,-6.260945287,1.034754983,-0.582697176,314.2519531,298.0625,612.3144531,1.434321099999969,-0.5551320000000137,3.400230000004001
32,-2.33847595,91.25866278,1.510502499,43.31482124,6.549852398,-10.06268791,0.5206407042,-6.25753414,1.031136627,-0.5832523079,314.2402344,298.3769531,612.6171875,1.4343211999999772,-0.5551319000000055,3.400239999997723
33,-2.339513463,91.25767636,1.509223748,43.31822147,6.550946992,-10.06379477,0.5220750253,-6.254122993,1.02751827,-0.5838074399,314.2402344,298.78125,613.0214844,1.43432110000008,-0.5551319999999027,3.4002299999968955
34,-2.340550977,91.25668995,1.507944998,43.3216217,6.552041587,-10.06490164,0.5235093465,-6.250711846,1.023899914,-0.5843625719,314.9160156,298.3554688,613.2714844,1.4343211999999772,-0.5551320000000137,3.400230000004001
35,-2.34158849,91.25570353,1.506666247,43.32502193,6.553136182,-10.0660085,0.5249436676,-6.247300699,1.020281557,-0.5849177038,313.9707031,299.0996094,613.0703125,1.434321099999969,-0.5551319000000055,3.4002299999968955
36,-2.342547506,91.25445002,1.505075387,43.32814907,6.554067772,-10.06704838,0.5263913351,-6.243902535,1.016717924,-0.5853796656,313.9316406,299.40625,613.3378906,1.4476675000000272,-0.4619618000000214,3.127140000003692
37,-2.343506523,91.25319651,1.503484527,43.33127621,6.554999361,-10.06808827,0.5278390026,-6.240504371,1.01315429,-0.5858416274,313.9316406,299.40625,613.3378906,1.4476675000000272,-0.4619618000000214,3.1271399999965865
38,-2.344465539,91.251943,1.501893666,43.33440335,6.555930951,-10.06912815,0.52928667,-6.237106207,1.009590657,-0.5863035892,313.609375,299.0917969,612.7011719,1.447667399999908,-0.4619618000000214,3.127140000003692
39,-2.345424556,91.25068949,1.500302806,43.33753049,6.556862541,-10.07016804,0.5307343375,-6.233708043,1.006027023,-0.586765551,313.609375,300.4453125,614.0546875,1.4476675000000272,-0.4619618000000214,3.1271399999965865
40,-2.346383572,91.24943598,1.498711946,43.34065762,6.557794131,-10.07120792,0.532182005,-6.230309879,1.00246339,-0.5872275128,312.9785156,300.1582031,613.1367188,1.4476675000000272,-0.4619617999999104,3.1271300000028646
41,-2.347251812,91.24790963,1.496803455,43.34343799,6.558562183,-10.07218099,0.5336578948,-6.226924448,0.99895314,-0.5875694334,312.6601563,300.15625,612.8164063,1.4758898000000187,-0.3419206000000452,2.7803699999964238
42,-2.348120052,91.24638327,1.494894964,43.34621835,6.559330234,-10.07315405,0.5351337847,-6.223539017,0.9954428898,-0.5879113541,312.6601563,300.8945313,613.5546875,1.475889899999916,-0.34192069999994246,2.780360000002702
43,-2.348988292,91.24485691,1.492986474,43.34899872,6.560098286,-10.07412711,0.5366096746,-6.220153586,0.9919326397,-0.5882532747,312.3105469,300.8945313,613.2050781,1.475889900000027,-0.3419206000000452,2.7803699999964238
44,-2.349856532,91.24333055,1.491077983,43.35177909,6.560866338,-10.07510018,0.5380855645,-6.216768155,0.9884223896,-0.5885951953,311.6953125,301.9335938,613.6289063,1.475889900000027,-0.3419206000000452,2.780370000003529
45,-2.350724772,91.24180419,1.489169492,43.35455945,6.56163439,-10.07607324,0.5395614544,-6.213382724,0.9849121395,-0.5889371159,311.3691406,301.9433594,613.3125,1.475889900000027,-0.3419205999999342,2.780360000002702
46,-2.351496801,91.2400052,1.486944936,43.3569401,6.562239156,-10.07698327,0.5410836961,-6.210011453,0.9814509339,-0.5891352894,311.0214844,301.9433594,612.9648438,1.5222416999999266,-0.19817350000006506,2.380649999999207
47,-2.35226883,91.23820621,1.48472038,43.35932075,6.562843922,-10.07789329,0.5426059378,-6.206640183,0.9779897282,-0.5893334629,310.3671875,302.2460938,612.6132813,1.5222417000000377,-0.19817349999995404,2.380649999999207
48,-2.35304086,91.23640721,1.482495823,43.3617014,6.563448688,-10.07880331,0.5441281795,-6.203268912,0.9745285226,-0.5895316364,309.7246094,302.8554688,612.5800781,1.5222417000000377,-0.19817349999995404,2.380649999999207
49,-2.353812889,91.23460822,1.480271267,43.36408205,6.564053455,-10.07971333,0.5456504212,-6.199897641,0.9710673169,-0.5897298099,309.4355469,303.1601563,612.5957031,1.5222416999999266,-0.19817350000006506,2.380649999999207
50,-2.354584919,91.23280923,1.478046711,43.3664627,6.564658221,-10.08062335,0.5471726628,-6.19652637,0.9676061113,-0.5899279835,309.1171875,303.8964844,613.0136719,1.5222416000000294,-0.1981735999999623,2.380649999999207
51,-2.35526001,91.23074423,1.475515143,43.36841741,6.565100089,-10.08147808,0.5487606531,-6.193172898,0.9641890742,-0.5899613189,308.796875,304.6328125,613.4296875,1.5879903000000084,-0.0333354000000563,1.954709999999693
52,-2.355935102,91.22867923,1.472983574,43.37037212,6.565541956,-10.08233282,0.5503486434,-6.189819426,0.9607720371,-0.5899946543,308.1601563,304.6328125,612.7929688,1.5879903000000084,-0.03333539999994528,1.954709999999693
53,-2.356610193,91.22661423,1.470452006,43.37232683,6.565983824,-10.08318755,0.5519366337,-6.186465954,0.957355,-0.5900279897,307.1992188,305.5449219,612.7441406,1.5879903000000084,-0.0333354000000563,1.954709999999693
54,-2.357285285,91.22454923,1.467920438,43.37428154,6.566425691,-10.08404228,0.5535246239,-6.183112482,0.9539379629,-0.590061325,307.171875,305.9765625,613.1484375,1.5879902000000001,-0.03333529999993701,1.954709999999693
55,-2.357960377,91.22248423,1.46538887,43.37623625,6.566867559,-10.08489701,0.5551126142,-6.17975901,0.9505209258,-0.5900946604,307.1679688,306.5859375,613.7539063,1.5879903000000084,-0.0333354000000563,1.954709999999693
56,-2.358541303,91.22016674,1.462567365,43.37776742,6.567146525,-10.08570906,0.5567851714,-6.176428698,0.9471436368,-0.5899452301,306.2382813,306.9023438,613.140625,1.6725571999999245,0.14943030000003077,1.531169999999804
57,-2.35912223,91.21784925,1.45974586,43.37929859,6.56742549,-10.08652111,0.5584577286,-6.173098386,0.9437663478,-0.5897957998,305.6113281,307.2070313,612.8183594,1.6725572000000355,0.14943030000003077,1.531169999999804
58,-2.359703157,91.21553176,1.456924355,43.38082976,6.567704456,-10.08733316,0.5601302858,-6.169768074,0.9403890588,-0.5896463694,305.2695313,307.9453125,613.2148438,1.6725572000000355,0.14943039999992802,1.531169999999804
59,-2.360284084,91.21321428,1.45410285,43.38236092,6.567983422,-10.08814522,0.561802843,-6.166437761,0.9370117698,-0.5894969391,304.6425781,307.9453125,612.5878906,1.6725572000000355,0.14943030000003077,1.531160000006082
60,-2.360865011,91.21089679,1.451281346,43.38389209,6.568262387,-10.08895727,0.5634754002,-6.163107449,0.9336344808,-0.5893475088,304.3242188,308.5507813,612.875,1.6725571999999245,0.14943030000003077,1.531169999999804
61,-2.361357554,91.20834758,1.448195365,43.38502988,6.568377771,-10.08974397,0.5652499796,-6.15980702,0.9302915353,-0.5890010909,304.0097656,309.59375,613.6035156,1.7745794000000314,0.3464179000000067,1.1377899999942542
62,-2.361850098,91.20579838,1.445109385,43.38616767,6.568493154,-10.09053067,0.5670245589,-6.15650659,0.9269485898,-0.5886546731,303.3847656,310.3300781,613.7148438,1.7745793000000232,0.34641779999999844,1.1377900000013597
63,-2.362342641,91.20324917,1.442023405,43.38730546,6.568608537,-10.09131737,0.5687991383,-6.15320616,0.9236056443,-0.5883082552,302.734375,310.9453125,613.6796875,1.7745793999999204,0.3464179000000067,1.1377900000013597
64,-2.362835185,91.20069997,1.438937425,43.38844325,6.568723921,-10.09210407,0.5705737176,-6.14990573,0.9202626988,-0.5879618374,302.0722656,311.25,613.3222656,1.7745793000000232,0.34641779999999844,1.1377900000013597
65,-2.363327729,91.19815076,1.435851445,43.38958104,6.568839304,-10.09289077,0.572348297,-6.1466053,0.9169197533,-0.5876154195,302.0605469,311.9882813,614.0488281,1.7745794000000314,0.3464179000000067,1.1377900000013597
66,-2.363738854,91.19539818,1.432535127,43.39038166,6.568789429,-10.09367301,0.5742397612,-6.143342178,0.9136070532,-0.5870609244,301.7148438,312.5957031,614.3105469,1.8914641999999704,0.554495099999941,0.8006199999996966
67,-2.36414998,91.19264559,1.429218809,43.39118227,6.568739554,-10.09445526,0.5761312253,-6.140079055,0.910294353,-0.5865064292,301.1503906,312.5957031,613.7460938,1.8914641000000731,0.5544952000000603,0.8006099999988692
68,-2.364561105,91.18989301,1.425902491,43.39198289,6.568689679,-10.09523751,0.5780226895,-6.136815933,0.9069816528,-0.5859519341,300.5019531,314.0703125,614.5722656,1.8914641999999704,0.554495099999941,0.8006199999996966
69,-2.364972231,91.18714043,1.422586174,43.3927835,6.568639804,-10.09601976,0.5799141536,-6.133552811,0.9036689527,-0.5853974389,300.1816406,314.3808594,614.5625,1.8914640999999621,0.5544952000000603,0.8006099999988692
70,-2.365383356,91.18438785,1.419269856,43.39358412,6.56858993,-10.096802,0.5818056178,-6.130289688,0.9003562525,-0.5848429438,299.8339844,315.125,614.9589844,1.8914641999999704,0.554495099999941,0.8006199999996966
71,-2.365719532,91.18146514,1.415762842,43.39412452,6.56837166,-10.09760345,0.5838245125,-6.12707095,0.897070596,-0.5840728066,299.5488281,315.7480469,615.296875,2.0188947000000512,0.7701371999999651,0.5403999999984421
72,-2.366055707,91.17854243,1.412255829,43.39466491,6.568153391,-10.0984049,0.5858434072,-6.123852212,0.8937849394,-0.5833026694,299.1992188,316.65625,615.8554688,2.0188947000000512,0.7701372000000761,0.5403900000047202
73,-2.366391882,91.17561972,1.408748815,43.39520531,6.567935121,-10.09920635,0.5878623018,-6.120633474,0.8904992829,-0.5825325323,298.8808594,316.9589844,615.8398438,2.018894599999932,0.7701370999999568,0.5403999999984421
74,-2.366728058,91.172697,1.405241802,43.3957457,6.567716852,-10.1000078,0.5898811965,-6.117414736,0.8872136263,-0.5817623951,299.1894531,317.4101563,616.5996094,2.0188947000000512,0.7701371999999651,0.5403899999976147
75,-2.367064233,91.16977429,1.401734788,43.3962861,6.567498583,-10.10080925,0.5919000912,-6.114195998,0.8839279698,-0.5809922579,298.8691406,318.0195313,616.8886719,2.01889469999994,0.7701372000000761,0.5403999999984421
76,-2.367329922,91.16671757,1.398079808,43.39665796,6.567107349,-10.1016559,0.5940514768,-6.111027577,0.8806651315,-0.5800025049,298.2324219,318.7539063,616.9863281,2.1513856000000553,0.9897529999999266,0.3718600000013339
77,-2.367595612,91.16366084,1.394424828,43.39702982,6.566716116,-10.10250255,0.5962028625,-6.107859156,0.8774022932,-0.579012752,297.9238281,319.3515625,617.2753906,2.1513856999999525,0.9897529000000294,0.3718600000013339
78,-2.367861301,91.16060411,1.390769848,43.39740168,6.566324882,-10.1033492,0.5983542481,-6.104690735,0.874139455,-0.578022999,297.8964844,319.375,617.2714844,2.1513856000000553,0.9897530000000376,0.3718600000013339
79,-2.36812699,91.15754738,1.387114867,43.39777354,6.565933649,-10.10419586,0.6005056338,-6.101522315,0.8708766167,-0.5770332461,297.9179688,319.9882813,617.90625,2.1513856999999525,0.9897529000000294,0.3718600000013339
80,-2.368392679,91.15449066,1.383459887,43.3981454,6.565542415,-10.10504251,0.6026570194,-6.098353894,0.8676137784,-0.5760434931,297.3027344,321.4609375,618.7636719,2.1513856000000553,0.9897529999999266,0.3718599999942285
81,-2.368589904,91.15133843,1.379702295,43.39844769,6.564972885,-10.10596183,0.6049413663,-6.095239983,0.8643706376,-0.5748323971,297.2832031,322.5,619.7832031,2.2843468999999006,1.2110960000000226,0.30229000000048245
82,-2.368787129,91.1481862,1.375944703,43.39874998,6.564403356,-10.10688116,0.6072257132,-6.092126073,0.8611274968,-0.5736213011,296.3046875,322.5039063,618.8085938,2.2843469000000116,1.2110960000000226,0.30229000000048245
83,-2.368984354,91.14503397,1.372187111,43.39905226,6.563833826,-10.10780049,0.6095100601,-6.089012163,0.857884356,-0.5724102051,295.9824219,323.1113281,619.09375,2.2843469000000116,1.2110960000000226,0.30227999999965505
84,-2.369181579,91.14188174,1.368429519,43.39935455,6.563264296,-10.10871981,0.611794407,-6.085898253,0.8546412152,-0.5711991091,296.0039063,323.7148438,619.71875,2.2843469000000116,1.2110959999999116,0.30229000000048245
85,-2.369378804,91.13872951,1.364671927,43.39965684,6.562694767,-10.10963914,0.614078754,-6.082784343,0.8513980745,-0.569988013,295.9902344,324.4589844,620.4492188,2.28434700000002,1.2110961000000309,0.30229000000048245
86,-2.369508244,91.13552143,1.360858233,43.39998871,6.561941577,-10.11065811,0.6164937089,-6.079726551,0.8481711115,-0.5685559513,295.9628906,325.1953125,621.1582031,2.414954899999988,1.432061699999987,0.3318700000036756
87,-2.369637683,91.13231336,1.357044539,43.40032058,6.561188388,-10.11167708,0.6189086638,-6.076668759,0.8449441485,-0.5671238896,296.0039063,325.8007813,621.8046875,2.414954899999988,1.432061699999987,0.3318699999965702
88,-2.369767123,91.12910529,1.353230845,43.40065245,6.560435199,-10.11269605,0.6213236188,-6.073610967,0.8417171855,-0.5656918279,295.0527344,326.1074219,621.1601563,2.4149549999999964,1.432061699999987,0.3318700000036756
