Time,Hip/Shoulder Separation,Shoulder Horizontal Abduction,Shoulder Abduction,Elbow Flexion,Torso Lateral Tilt,Torso Forward Tilt,Torso Rotation,Pelvis Lateral Tilt,Pelvis Forward Tilt,Pelvis Rotation,Front Vertical Force,Back Vertical Force,Total Vertical Force,Torso Angular Velocity,Pelvis Angular Velocity,Arm Angular Velocity
0,0.171917203,-7.37510978,-52.67112796,40.51223114,-3.141275479,-4.328408247,1.577862563,5.509308895,-1.511982093,1.461703318,376.9550781,369.6035156,746.5585938,8.37791099999996,3.8110260000001617,14.633959999997614
1,0.1652252084,-7.406150453,-52.66285,40.52790192,-3.138659072,-4.304023308,1.584138526,5.507101759,-1.520398525,1.464520669,376.3125,369.1660156,745.4785156,6.2759629999999955,2.8173510000000235,15.670780000000661
2,0.1585332139,-7.437191126,-52.65457204,40.5435727,-3.136042666,-4.27963837,1.590414489,5.504894623,-1.528814957,1.467338021,376.3125,368.8671875,745.1796875,6.2759629999999955,2.817351999999884,15.670780000000661
3,0.1518412193,-7.468231799,-52.64629408,40.55924347,-3.133426259,-4.255253431,1.596690452,5.502687487,-1.537231388,1.470155372,375.984375,368.5625,744.546875,6.2759629999999955,2.8173510000000235,15.670769999999834
4,0.1451492248,-7.499272471,-52.63801612,40.57491425,-3.130809853,-4.230868492,1.602966415,5.500480351,-1.54564782,1.472972723,375.0195313,368.5625,743.5820313,6.2759629999999955,2.8173510000000235,15.670780000000661
5,0.1384572302,-7.530313144,-52.62973816,40.59058503,-3.128193446,-4.206483554,1.609242378,5.498273215,-1.554064252,1.475790075,374.6796875,368.5625,743.2421875,6.2759629999999955,2.817351999999884,15.670780000000661
6,0.1327423675,-7.565237655,-52.62102292,40.60731242,-3.125221285,-4.180754276,1.613368148,5.495939386,-1.56246566,1.477568509,374.3613281,368.265625,742.6269531,4.125769999999918,1.7784339999999954,16.727389999999787
7,0.1270275047,-7.600162166,-52.61230768,40.62403982,-3.122249124,-4.155024999,1.617493918,5.493605558,-1.570867069,1.479346944,373.71875,367.8320313,741.5507813,4.12577000000014,1.7784350000000781,16.727400000000614
8,0.1213126419,-7.635086677,-52.60359244,40.64076722,-3.119276963,-4.129295721,1.621619687,5.49127173,-1.579268478,1.481125378,373.0683594,367.8320313,740.9003906,4.125768999999835,1.7784339999999954,16.727400000000614
9,0.1155977791,-7.670011188,-52.5948772,40.65749462,-3.116304801,-4.103566443,1.625745457,5.488937902,-1.587669887,1.482903813,372.7460938,367.5292969,740.2753906,4.12577000000014,1.7784350000000781,16.727400000000614
10,0.1098829163,-7.704935699,-52.58616196,40.67422202,-3.11333264,-4.077837166,1.629871227,5.486604074,-1.596071295,1.484682247,372.4414063,367.2265625,739.6679688,4.125769999999918,1.7784339999999954,16.727400000000614
11,0.1050382847,-7.743530732,-52.57702771,40.69198952,-3.109978615,-4.050811257,1.631921165,5.484132554,-1.604437274,1.485382365,372.1191406,367.2246094,739.34375,2.0499380000000844,0.7001179999999163,17.767499999997938
12,0.1001936531,-7.782125765,-52.56789346,40.70975703,-3.106624589,-4.023785349,1.633971103,5.481661034,-1.612803253,1.486082484,371.4726563,366.4882813,737.9609375,2.0499379999998624,0.700118999999999,17.767509999998765
13,0.09534902151,-7.820720798,-52.5587592,40.72752454,-3.103270564,-3.99675944,1.636021041,5.479189513,-1.621169232,1.486782602,371.4863281,366.4804688,737.9667969,2.0499380000000844,0.7001179999999163,17.767509999998765
14,0.0905043899,-7.859315831,-52.54962495,40.74529205,-3.099916539,-3.969733532,1.638070979,5.476717993,-1.629535212,1.487482721,371.796875,366.0625,737.859375,2.0499380000000844,0.700118999999999,17.76751000000587
15,0.08565975829,-7.897910864,-52.54049069,40.76305956,-3.096562513,-3.942707623,1.640120917,5.474246473,-1.637901191,1.488182839,370.828125,365.7597656,736.5878906,2.0499379999998624,0.7001180000001384,17.767509999998765
16,0.08145125184,-7.939740003,-52.53096384,40.781817,-3.092807763,-3.914491005,1.640309591,5.471628554,-1.646211242,1.48777226,370.4453125,365.4414063,735.8867188,0.1886740000001108,-0.4105789999999665,18.757439999994574
17,0.07724274538,-7.981569142,-52.52143699,40.80057444,-3.089053012,-3.886274387,1.640498264,5.469010635,-1.654521293,1.48736168,370.4453125,365.4414063,735.8867188,0.18867300000002807,-0.41058000000004924,18.75744000000168
18,0.07303423893,-8.02339828,-52.51191015,40.81933188,-3.085298261,-3.858057768,1.640686937,5.466392716,-1.662831344,1.486951101,369.8300781,365.3203125,735.1503906,0.18867299999980602,-0.4105789999999665,18.75744000000168
19,0.06882573248,-8.065227419,-52.5023833,40.83808932,-3.08154351,-3.82984115,1.64087561,5.463774798,-1.671141395,1.486540522,369.5097656,365.0175781,734.5273438,0.18867300000002807,-0.4105789999999665,18.75744000000168
20,0.06461722603,-8.107056558,-52.49285645,40.85684676,-3.07778876,-3.801624531,1.641064283,5.461156879,-1.679451447,1.486129943,368.8867188,364.7148438,733.6015625,0.18867300000002807,-0.41057900000018854,18.75744000000168
21,0.06068053665,-8.151455761,-52.48297188,40.87651403,-3.073630038,-3.772384189,1.639752342,5.458385887,-1.687680502,1.484585491,368.8925781,364.4238281,733.3164063,-1.3119409999999831,-1.544451999999863,19.66726999999935
22,0.05674384727,-8.195854964,-52.47308731,40.8961813,-3.069471317,-3.743143846,1.638440401,5.455614896,-1.695909557,1.483041038,368.2421875,364.4140625,732.65625,-1.3119409999999831,-1.5444529999999457,19.66726999999935
23,0.0528071579,-8.240254168,-52.46320274,40.91584857,-3.065312596,-3.713903504,1.63712846,5.452843905,-1.704138613,1.481496586,368.5664063,364.4140625,732.9804688,-1.3119409999999831,-1.544452000000085,19.66726999999935
24,0.04887046852,-8.284653371,-52.45331816,40.93551584,-3.061153875,-3.684663162,1.635816519,5.450072913,-1.712367668,1.479952134,367.9375,363.9980469,731.9355469,-1.3119409999999831,-1.544452000000085,19.66726999999935
25,0.04493377914,-8.329052575,-52.44343359,40.95518311,-3.056995153,-3.655422819,1.634504578,5.447301922,-1.720596723,1.478407682,367.921875,363.3828125,731.3046875,-1.3119409999999831,-1.544451999999863,19.66726999999935
26,0.04078466223,-8.375153782,-52.43323795,40.97565432,-3.052454675,-3.625381929,1.63218865,5.444373917,-1.72871461,1.475715958,367.9355469,363.3828125,731.3183594,-2.3159280000000226,-2.691723999999951,20.47120999999663
27,0.03663554531,-8.421254989,-52.42304231,40.99612553,-3.047914196,-3.595341039,1.629872722,5.441445911,-1.736832497,1.473024234,367.2871094,363.703125,730.9902344,-2.3159280000000226,-2.691724000000173,20.471210000003737
28,0.0324864284,-8.467356195,-52.41284667,41.01659674,-3.043373718,-3.565300149,1.627556794,5.438517905,-1.744950383,1.47033251,366.9277344,363.0996094,730.0273438,-2.3159280000000226,-2.691723999999951,20.47120999999663
29,0.02833731148,-8.513457402,-52.40265103,41.03706795,-3.038833239,-3.535259259,1.625240866,5.4355899,-1.75306827,1.467640786,366.5917969,362.7910156,729.3828125,-2.3159280000000226,-2.691723999999951,20.471210000003737
30,0.02418819456,-8.559558609,-52.39245539,41.05753917,-3.03429276,-3.505218369,1.622924938,5.432661894,-1.761186157,1.464949062,366.5898438,362.7910156,729.3808594,-2.3159280000000226,-2.691723999999951,20.47121999999746
31,0.01925259298,-8.606345516,-52.38200826,41.07868844,-3.029424792,-3.474640427,1.620207406,5.429576454,-1.769157702,1.461107903,366.5898438,363.0996094,729.6894531,-2.7175319999999115,-3.8411590000000384,21.14927000000222
32,0.0143169914,-8.653132422,-52.37156114,41.09983771,-3.024556823,-3.444062484,1.617489874,5.426491013,-1.777129248,1.457266745,366.2734375,363.0898438,729.3632813,-2.7175319999999115,-3.8411579999999557,21.14927000000222
33,0.009381389815,-8.699919328,-52.36111401,41.12098698,-3.019688854,-3.413484542,1.614772343,5.423405573,-1.785100793,1.453425587,365.6484375,362.3496094,727.9980469,-2.7175310000000508,-3.8411580000001777,21.149269999995113
34,0.004445788232,-8.746706235,-52.35066688,41.14213625,-3.014820885,-3.382906599,1.612054811,5.420320133,-1.793072339,1.449584428,365.6601563,361.7441406,727.4042969,-2.7175320000001335,-3.8411589999998164,21.14927000000222
35,-0.0004898133586,-8.793493141,-52.34021976,41.16328552,-3.009952916,-3.352328657,1.609337279,5.417234692,-1.801043885,1.44574327,365.6601563,362.0605469,727.7207031,-2.7175319999999115,-3.8411580000001777,21.14927000000222
36,-0.006828362248,-8.83988115,-52.32958255,41.18497281,-3.004835619,-3.321498353,1.606878998,5.41399525,-1.808826538,1.440763605,365.6601563,361.6269531,727.2871094,-2.4582810000000066,-4.979665000000022,21.687289999995585
37,-0.01316691114,-8.886269158,-52.31894535,41.2066601,-2.999718322,-3.29066805,1.604420717,5.410755809,-1.816609192,1.43578394,365.6601563,361.7460938,727.40625,-2.4582810000000066,-4.9796649999998,21.68729000000269
38,-0.01950546003,-8.932657167,-52.30830814,41.22834739,-2.994601025,-3.259837746,1.601962436,5.407516367,-1.824391846,1.430804275,365.6484375,361.4433594,727.0917969,-2.4582810000000066,-4.979665000000022,21.68729000000269
39,-0.02584400891,-8.979045176,-52.29767094,41.25003468,-2.989483728,-3.229007442,1.599504155,5.404276925,-1.8321745,1.42582461,365.6347656,361.0234375,726.6582031,-2.4582810000000066,-4.979665000000022,21.687289999995585
40,-0.03218255781,-9.025433184,-52.28703374,41.27172197,-2.984366431,-3.198177139,1.597045874,5.401037483,-1.839957154,1.420844944,365.3144531,360.5898438,725.9042969,-2.4582810000000066,-4.979666000000105,21.68729000000269
41,-0.0405249829,-9.070353,-52.27624591,41.29380022,-2.979080298,-3.167394036,1.595508329,5.397653042,-1.847503925,1.414751949,364.9921875,360.28125,725.2734375,-1.537544999999918,-6.092994999999934,22.078249999999855
42,-0.04886740798,-9.115272815,-52.26545809,41.31587848,-2.973794164,-3.136610933,1.593970784,5.394268601,-1.855050696,1.408658954,365.6210938,359.2460938,724.8671875,-1.53754500000014,-6.092994999999934,22.078260000000682
43,-0.05720983306,-9.160192631,-52.25467027,41.33795673,-2.968508031,-3.10582783,1.592433239,5.39088416,-1.862597467,1.402565959,365.3085938,358.9375,724.2460938,-1.537544999999918,-6.0929950000001565,22.078249999999855
44,-0.06555225814,-9.205112446,-52.24388245,41.36003498,-2.963221898,-3.075044727,1.590895694,5.387499719,-1.870144238,1.396472963,365.28125,358.9277344,724.2089844,-1.537544999999918,-6.092996000000017,22.078249999999855
45,-0.07389468323,-9.250032262,-52.23309462,41.38211323,-2.957935764,-3.044261624,1.58935815,5.384115278,-1.877691009,1.390379968,365.6210938,358.6347656,724.2558594,-1.5375440000000573,-6.092994999999934,22.078249999999855
46,-0.08474451371,-9.292524873,-52.22214425,41.40443563,-2.952536492,-3.013843119,1.58932315,5.380601114,-1.88495277,1.383214816,365.9648438,358.203125,724.1679688,-0.03500000000000725,-7.165152000000008,22.322400000000187
47,-0.09559434419,-9.335017484,-52.21119388,41.42675803,-2.94713722,-2.983424615,1.58928815,5.37708695,-1.892214531,1.376049665,365.9648438,358.203125,724.1679688,-0.03500000000000725,-7.165150999999925,22.322400000000187
48,-0.1064441747,-9.377510095,-52.20024351,41.44908043,-2.941737948,-2.953006111,1.589253151,5.373572785,-1.899476292,1.368884513,365.9492188,357.5976563,723.546875,-0.03499899999992451,-7.165152000000008,22.322400000000187
49,-0.1172940051,-9.420002707,-52.18929314,41.47140283,-2.936338676,-2.922587607,1.589218151,5.370058621,-1.906738053,1.361719361,366.25,356.5546875,722.8046875,-0.03500000000000725,-7.165152000000008,22.322400000000187
50,-0.1281438356,-9.462495318,-52.17834277,41.49372524,-2.930939404,-2.892169102,1.589183151,5.366544456,-1.913999814,1.35455421,366.5722656,356.5546875,723.1269531,-0.03500000000000725,-7.165150999999925,22.322410000001014
51,-0.1418263311,-9.501796777,-52.16714279,41.51614908,-2.925435144,-2.86245815,1.591074385,5.362922763,-1.920923684,1.346375855,367.5234375,356.5546875,724.078125,1.8912339999999084,-8.178355000000082,22.423839999994755
52,-0.1555088267,-9.541098235,-52.15594281,41.53857292,-2.919930883,-2.832747197,1.592965618,5.35930107,-1.927847554,1.3381975,367.8710938,355.8105469,723.6816406,1.8912330000000477,-8.178355000000082,22.42384000000186
53,-0.1691913222,-9.580399694,-52.14474283,41.56099676,-2.914426622,-2.803036245,1.594856851,5.355679377,-1.934771424,1.330019145,367.8710938,355.203125,723.0742188,1.8912330000000477,-8.17835499999986,22.42384000000186
54,-0.1828738177,-9.619701152,-52.13354285,41.5834206,-2.908922361,-2.773325293,1.596748085,5.352057683,-1.941695295,1.321840791,368.1933594,355.4882813,723.6816406,1.8912339999999084,-8.178353999999999,22.423839999994755
55,-0.1965563132,-9.659002611,-52.12234288,41.60584443,-2.9034181,-2.74361434,1.598639318,5.34843599,-1.948619165,1.313662436,368.1933594,354.4609375,722.6542969,1.8912330000000477,-8.178355000000082,22.423830000001033
56,-0.2131713198,-9.694598078,-52.11073872,41.62822926,-2.897774058,-2.714971895,1.602674205,5.344737013,-1.955150271,1.304547628,368.1933594,354.15625,722.3496094,4.034886999999987,-9.114808000000085,22.384830000000022
57,-0.2297863263,-9.730193545,-52.09913457,41.65061408,-2.892130015,-2.68632945,1.606709091,5.341038036,-1.961681377,1.295432819,369.171875,354.15625,723.328125,4.034885999999904,-9.114808999999946,22.384819999999195
58,-0.2464013328,-9.765789012,-52.08753041,41.6729989,-2.886485973,-2.657687006,1.610743978,5.337339059,-1.968212484,1.286318011,370.1679688,353.8730469,724.0410156,4.034886999999987,-9.114807999999863,22.3848200000063
59,-0.2630163394,-9.801384479,-52.07592626,41.69538373,-2.880841931,-2.629044561,1.614778864,5.333640083,-1.97474359,1.277203203,370.1953125,353.8730469,724.0683594,4.034886000000126,-9.114808000000085,22.384830000000022
60,-0.2796313459,-9.836979947,-52.06432211,41.71776855,-2.875197888,-2.600402116,1.618813751,5.329941106,-1.981274696,1.268088395,370.5,353.5644531,724.0644531,4.034886999999987,-9.114808000000085,22.384819999999195
61,-0.2990471087,-9.868631228,-52.05213346,41.73996938,-2.869366381,-2.57316871,1.624994516,5.326203125,-1.987354641,1.258132453,371.1367188,353.5644531,724.7011719,6.180765000000088,-9.95594199999994,22.20082999999562
62,-0.3184628716,-9.90028251,-52.0399448,41.7621702,-2.863534874,-2.545935305,1.631175282,5.322465144,-1.993434586,1.248176511,371.4589844,353.1308594,724.5898438,6.180765999999949,-9.95594199999994,22.200820000001897
63,-0.3378786344,-9.931933791,-52.02775615,41.78437103,-2.857703367,-2.518701899,1.637356047,5.318727163,-1.99951453,1.238220569,371.4648438,352.8183594,724.2832031,6.180764999999866,-9.95594199999994,22.200830000002725
64,-0.3572943972,-9.963585073,-52.0155675,41.80657185,-2.85187186,-2.491468493,1.643536813,5.314989182,-2.005594475,1.228264628,371.7929688,352.8183594,724.6113281,6.180766000000171,-9.95594100000008,22.200819999994792
65,-0.37671016,-9.995236354,-52.00337885,41.82877268,-2.846040353,-2.464235088,1.649717578,5.311251201,-2.01167442,1.218308686,371.7792969,352.3867188,724.1660156,6.180764999999866,-9.95594199999994,22.200830000002725
66,-0.3985976452,-10.02298355,-51.99045207,41.8506348,-2.839996464,-2.438671405,1.65785936,5.307520057,-2.017239337,1.20762466,372.421875,351.4746094,723.8964844,8.141782000000042,-10.684026000000069,21.86212000000154
67,-0.4204851303,-10.05073074,-51.97752528,41.87249692,-2.833952575,-2.413107723,1.666001142,5.303788912,-2.022804253,1.196940634,372.1464844,351.46875,723.6152344,8.141782000000042,-10.684026000000069,21.86212000000154
68,-0.4423726155,-10.07847793,-51.9645985,41.89435904,-2.827908687,-2.38754404,1.674142923,5.300057767,-2.02836917,1.186256609,372.1464844,351.6113281,723.7578125,8.141780999999959,-10.684024999999986,21.862119999994434
69,-0.4642601007,-10.10622512,-51.95167171,41.91622116,-2.821864798,-2.361980357,1.682284705,5.296326622,-2.033934087,1.175572583,372.7832031,351.1796875,723.9628906,8.141782000000042,-10.684026000000069,21.86212000000154
70,-0.4861475858,-10.13397231,-51.93874493,41.93808328,-2.815820909,-2.336416675,1.690426487,5.292595477,-2.039499003,1.164888557,373.1445313,351.46875,724.6132813,8.141782000000042,-10.684025999999847,21.86212000000154
71,-0.5100421499,-10.15810143,-51.9249901,41.95943772,-2.809581069,-2.312650417,1.700210493,5.288923788,-2.044482859,1.153603963,372.8164063,351.46875,724.2851563,9.784005999999845,-11.284594000000148,21.35443999999609
72,-0.5339367139,-10.18223055,-51.91123527,41.98079216,-2.803341229,-2.28888416,1.709994498,5.285252099,-2.049466714,1.142319368,373.171875,351.1660156,724.3378906,9.784004999999985,-11.284595000000008,21.354440000003194
73,-0.557831278,-10.20635967,-51.89748043,42.0021466,-2.797101388,-2.265117903,1.719778504,5.28158041,-2.054450569,1.131034773,372.828125,350.8652344,723.6933594,9.784006000000067,-11.284594999999786,21.354440000003194
74,-0.581725842,-10.23048879,-51.8837256,42.02350104,-2.790861548,-2.241351645,1.729562509,5.27790872,-2.059434424,1.119750179,373.4570313,350.8789063,724.3359375,9.784004999999985,-11.284594000000148,21.35443999999609
75,-0.6056204061,-10.25461791,-51.86997077,42.04485548,-2.784621708,-2.217585388,1.739346515,5.274237031,-2.064418279,1.108465584,373.4980469,350.1386719,723.6367188,9.784006000000067,-11.284595000000008,21.354440000003194
76,-0.63100273,-10.27558338,-51.85536198,42.06551875,-2.778229609,-2.195593606,1.750395749,5.270681631,-2.068754462,1.096718956,373.2011719,350.2675781,723.46875,11.049233999999908,-11.746628000000037,20.66327000000001
77,-0.656385054,-10.29654885,-51.84075319,42.08618201,-2.77183751,-2.173601824,1.761444984,5.267126231,-2.073090645,1.084972329,372.8925781,350.5761719,723.46875,11.04923499999999,-11.746626999999954,20.663259999999184
78,-0.681767378,-10.31751432,-51.82614439,42.10684528,-2.765445411,-2.151610042,1.772494219,5.263570831,-2.077426827,1.073225701,372.8925781,351.1796875,724.0722656,11.04923499999999,-11.746628000000037,20.66327000000001
79,-0.7071497019,-10.33847979,-51.8115356,42.12750854,-2.759053312,-2.129618261,1.783543454,5.26001543,-2.08176301,1.061479073,373.203125,351.1796875,724.3828125,11.04923499999999,-11.746627999999815,20.663259999999184
80,-0.7325320259,-10.35944527,-51.79692681,42.14817181,-2.752661213,-2.107626479,1.794592688,5.25646003,-2.086099193,1.049732445,373.203125,351.1796875,724.3828125,11.04923400000013,-11.746628000000037,20.66327000000001
81,-0.7588958694,-10.37777307,-51.7814864,42.16795205,-2.746169005,-2.087259196,1.806536612,5.253079288,-2.089723291,1.037668205,372.8710938,351.6347656,724.5058594,11.943923999999884,-12.06424000000017,19.780239999995786
82,-0.785259713,-10.39610087,-51.766046,42.18773229,-2.739676797,-2.066891914,1.818480535,5.249698545,-2.09334739,1.025603965,372.8984375,351.6347656,724.5332031,11.943923000000023,-12.064239999999948,19.78024000000289
83,-0.8116235566,-10.41442867,-51.75060559,42.20751253,-2.733184589,-2.046524631,1.830424458,5.246317803,-2.096971488,1.013539724,372.9257813,351.6210938,724.546875,11.943923000000023,-12.064241000000031,19.78024000000289
84,-0.8379874001,-10.43275647,-51.73516518,42.22729277,-2.726692381,-2.026157349,1.842368381,5.242937061,-2.100595586,1.001475484,372.9257813,351.9414063,724.8671875,11.943923000000023,-12.064239999999948,19.780239999995786
85,-0.8643512437,-10.45108427,-51.71972477,42.247073,-2.720200173,-2.005790067,1.854312305,5.239556318,-2.104219685,0.9894112435,372.6054688,352.6796875,725.2851563,11.943924000000106,-12.06424049999999,19.780230000002064
86,-0.891246025,-10.46728342,-51.70350044,42.26577787,-2.713650479,-1.986819499,1.866827794,5.236407306,-2.107077252,0.9771741051,372.28125,352.9824219,725.2636719,12.51548899999988,-12.237138399999958,18.70487000000054
87,-0.9181408063,-10.48348257,-51.68727611,42.28448274,-2.707100785,-1.967848931,1.879343282,5.233258294,-2.109934819,0.9649369666,372.3085938,352.9824219,725.2910156,12.515488000000019,-12.237138500000077,18.70487000000054
88,-0.9450355877,-10.49968173,-51.67105178,42.30318761,-2.700551091,-1.948878363,1.891858771,5.230109282,-2.112792386,0.9526998281,371.9648438,353.0,724.9648438,12.515489000000102,-12.237138499999967,18.70487000000054
